# omega (eV), Re alpha(w), Im alpha(w)
0.010000000000000000,0.000379363646844537,-0.009804023910879122
0.060000000000000005,0.010619372979482452,-0.055263230098079132
0.110000000000000001,0.027699912060607432,-0.094394160506575231
0.160000000000000031,0.048185775574233987,-0.128678749007822335
0.210000000000000020,0.070860697815683882,-0.158973753507886617
0.260000000000000009,0.095012707393265866,-0.185836233201168294
0.310000000000000053,0.120188343345093374,-0.209653608495442956
0.360000000000000042,0.146064337318712184,-0.230706799716738770
0.410000000000000031,0.172378556502854330,-0.249216034944878401
0.460000000000000020,0.198898503190788667,-0.265371340700186087
0.510000000000000009,0.225410802371354135,-0.279349773753366615
0.560000000000000053,0.251720630894871567,-0.291323163031744770
0.610000000000000098,0.277654452620968273,-0.301460157825369446
0.660000000000000031,0.303062693336967448,-0.309925447422767786
0.710000000000000075,0.327821067119374254,-0.316877956082038947
0.760000000000000009,0.351830374375616650,-0.322468989361450131
0.810000000000000053,0.375015067430338356,-0.326840769896800887
0.860000000000000098,0.397321007216084487,-0.330125493329262887
0.910000000000000031,0.418712801290576364,-0.332444880602121851
0.960000000000000075,0.439171023481965628,-0.333910138848639904
1.010000000000000009,0.458689519797622403,-0.334622227626099944
1.060000000000000053,0.477272924425106770,-0.334672334888322653
1.110000000000000098,0.494934449070825788,-0.334142483631610920
1.160000000000000142,0.511693967150367413,-0.333106208312804519
1.210000000000000187,0.527576387752433207,-0.331629256605154854
1.260000000000000009,0.542610298853300033,-0.329770285639381044
1.310000000000000053,0.556826851515183630,-0.327581532440374523
1.360000000000000098,0.570258854085484268,-0.325109446143422742
1.410000000000000142,0.582940045782941119,-0.322395275239127643
1.460000000000000187,0.594904521169778988,-0.319475607038769094
1.510000000000000009,0.606186279978893072,-0.316382859197996247
1.560000000000000053,0.616818880030858274,-0.313145724834694161
1.610000000000000098,0.626835174200906842,-0.309789573798625151
1.660000000000000142,0.636267115394664629,-0.306336813201684544
1.710000000000000187,0.645145616173688929,-0.302807210550156303
1.760000000000000009,0.653500452007888422,-0.299218182843913161
1.810000000000000053,0.661360199127292603,-0.295585054899839772
1.860000000000000098,0.668752199625182842,-0.291921289971920073
1.910000000000000142,0.675702547862324754,-0.288238695515159182
1.960000000000000187,0.682236093374739005,-0.284547606699177003
2.009999999999999787,0.688376456431307182,-0.280857050035520084
2.060000000000000053,0.694146053155809795,-0.277174889250037970
2.109999999999999876,0.699566127750530176,-0.273507955313485762
2.159999999999999698,0.704656789861068944,-0.269862162342499601
2.209999999999999964,0.709437055526463078,-0.266242610900146670
2.259999999999999787,0.713924890483522478,-0.262653680060147277
2.310000000000000053,0.718137254854726348,-0.259099109450724174
2.359999999999999876,0.722090148457620429,-0.255582072361640544
2.410000000000000142,0.725798656140643872,-0.252105240879954617
2.459999999999999964,0.729276992683965841,-0.248670843914955086
2.509999999999999787,0.732538546910895483,-0.245280718879287013
2.560000000000000053,0.735595924741098806,-0.241936357710170191
2.609999999999999876,0.738460990985483567,-0.238638947840695670
2.660000000000000142,0.741144909737607382,-0.235389408665418687
2.709999999999999964,0.743658183260542116,-0.232188423985921377
2.759999999999999787,0.746010689303437835,-0.229036470869866671
2.810000000000000053,0.748211716810287975,-0.225933845310588854
2.859999999999999876,0.750270000005976656,-0.222880685032813636
2.910000000000000142,0.752193750862652055,-0.219876989753119867
2.959999999999999964,0.753990689963703220,-0.216922639170737536
3.009999999999999787,0.755668075793804794,-0.214017408934797204
3.060000000000000053,0.757232732492189919,-0.211160984807804791
3.109999999999999876,0.758691076112966045,-0.208352975221586578
3.160000000000000142,0.760049139441273724,-0.205592922400915923
3.209999999999999964,0.761312595417688476,-0.202880312211237396
3.259999999999999787,0.762486779225728828,-0.200214582870104296
3.310000000000000053,0.763576709098870543,-0.197595132646929184
3.359999999999999876,0.764587105904222408,-0.195021326662226518
3.410000000000000142,0.765522411560158211,-0.192492502885533850
3.459999999999999964,0.766386806344809157,-0.190007977420482199
3.509999999999999787,0.767184225151528398,-0.187567049155910714
3.560000000000000053,0.767918372746304589,-0.185169003853372066
3.609999999999999876,0.768592738080701832,-0.182813117733734543
3.660000000000000142,0.769210607712299765,-0.180498660618769069
3.709999999999999964,0.769775078382853750,-0.178224898677522559
3.759999999999999787,0.770289068802510912,-0.175991096821843745
3.810000000000000053,0.770755330686478168,-0.173796520790581083
3.859999999999999876,0.771176459088529831,-0.171640438957647135
3.910000000000000142,0.771554902073727455,-0.169522123895283233
3.959999999999999964,0.771892969770691106,-0.167440853720422916
4.009999999999999787,0.772192842841767035,-0.165395913248979370
4.059999999999999609,0.772456580407440141,-0.163386594980152622
4.110000000000000320,0.772686127459419225,-0.161412199930412559
4.160000000000000142,0.772883321794926026,-0.159472038334642796
4.209999999999999964,0.773049900502891352,-0.157565430229996417
4.259999999999999787,0.773187506031002725,-0.155691705936289615
4.309999999999999609,0.773297691860839520,-0.153850206445225957
4.360000000000000320,0.773381927816714665,-0.152040283729374920
4.410000000000000142,0.773441605032276547,-0.150261300980612550
4.459999999999999964,0.773478040597444738,-0.148512632786647530
4.509999999999999787,0.773492481906842722,-0.146793665253290989
4.559999999999999609,0.773486110729552423,-0.145103796079270375
4.610000000000000320,0.773460047018735830,-0.143442434589621776
4.660000000000000142,0.773415352478490803,-0.141809001733016915
4.709999999999999964,0.773353033904149667,-0.140202930047773289
4.759999999999999787,0.773274046311184571,-0.138623663600759228
4.810000000000000497,0.773179295866865957,-0.137070657902925941
4.860000000000000320,0.773069642637878807,-0.135543379804771269
4.910000000000000142,0.772945903166219250,-0.134041307374662105
4.959999999999999964,0.772808852884856234,-0.132563929762604310
5.009999999999999787,0.772659228383872798,-0.131110747051748910
5.060000000000000497,0.772497729537060085,-0.129681270099657214
5.110000000000000320,0.772325021498269537,-0.128275020371109855
5.160000000000000142,0.772141736576179794,-0.126891529764033423
5.209999999999999964,0.771948475995546946,-0.125530340429931747
5.259999999999999787,0.771745811552451255,-0.124191004590042342
5.310000000000000497,0.771534287170528521,-0.122873084348288919
5.360000000000000320,0.771314420364700437,-0.121576151501971680
5.410000000000000142,0.771086703618467872,-0.120299787351017304
5.459999999999999964,0.770851605680400342,-0.119043582506510343
5.509999999999999787,0.770609572785084018,-0.117807136699131676
5.560000000000000497,0.770361029803411479,-0.116590058588051132
5.610000000000000320,0.770106381326767786,-0.115391965570746824
5.660000000000000142,0.769846012689349268,-0.114212483594159919
5.709999999999999964,0.769580290932566413,-0.113051246967536642
5.759999999999999787,0.769309565715198485,-0.111907898177258949
5.810000000000000497,0.769034170172730902,-0.110782087703919119
5.860000000000000320,0.768754421729058390,-0.109673473841855967
5.910000000000000142,0.768470622863530073,-0.108581722521333301
5.959999999999999964,0.768183061836100189,-0.107506507133511578
6.009999999999999787,0.767892013373172699,-0.106447508358335330
6.060000000000000497,0.767597739316539518,-0.105404413995435944
6.110000000000000320,0.767300489237663030,-0.104376918798126730
6.160000000000000142,0.767000501019392211,-0.103364724310549050
6.209999999999999964,0.766698001407070007,-0.102367538708012726
6.259999999999999787,0.766393206530856408,-0.101385076640557528
6.310000000000000497,0.766086322400966302,-0.100417059079751805
6.360000000000000320,0.765777545377418711,-0.099463213168732134
6.410000000000000142,0.765467062615782012,-0.098523272075478271
6.459999999999999964,0.765155052490304466,-0.097596974849310042
6.509999999999999787,0.764841684995730575,-0.096684066280584929
6.560000000000000497,0.764527122129021297,-0.095784296763568741
6.610000000000000320,0.764211518252111977,-0.094897422162446912
6.660000000000000142,0.763895020436776928,-0.094023203680439024
6.709999999999999964,0.763577768792598088,-0.093161407731975343
6.759999999999999787,0.763259896778972768,-0.092311805817890710
6.810000000000000497,0.762941531502036030,-0.091474174403588807
6.860000000000000320,0.762622793997321247,-0.090648294800127177
6.910000000000000142,0.762303799498932455,-0.089833953048171516
6.959999999999999964,0.761984657695946921,-0.089030939804766743
7.009999999999999787,0.761665472976735591,-0.088239050232870889
7.060000000000000497,0.761346344661833152,-0.087458083893596925
7.110000000000000320,0.761027367225964979,-0.086687844641107570
7.160000000000000142,0.760708630509791317,-0.085928140520107152
7.209999999999999964,0.760390219921902033,-0.085178783665875044
7.259999999999999787,0.760072216631562880,-0.084439590206784820
7.310000000000000497,0.759754697752684449,-0.083710380169253695
7.360000000000000320,0.759437736519453677,-0.082990977385067041
7.410000000000000142,0.759121402454054683,-0.082281209401023028
7.459999999999999964,0.758805761526865186,-0.081580907390843560
7.509999999999999787,0.758490876309506512,-0.080889906069297399
7.560000000000000497,0.758176806121095614,-0.080208043608482951
7.610000000000000320,0.757863607168031472,-0.079535161556218259
7.660000000000000142,0.757551332677632083,-0.078871104756486982
7.709999999999999964,0.757240033025914361,-0.078215721271889541
7.759999999999999787,0.756929755859799713,-0.077568862308050351
7.810000000000000497,0.756620546214010536,-0.076930382139931558
7.860000000000000320,0.756312446622907308,-0.076300138040006196
7.910000000000000142,0.756005497227504542,-0.075677990208243340
7.959999999999999964,0.755699735877891077,-0.075063801703859484
8.009999999999999787,0.755395198231267440,-0.074457438378791541
8.060000000000000497,0.755091917845801874,-0.073858768812846531
8.109999999999999432,0.754789926270498235,-0.073267664250486073
8.160000000000000142,0.754489253131256365,-0.072683998539202543
8.210000000000000853,0.754189926213298723,-0.072107648069446667
8.259999999999999787,0.753891971540125549,-0.071538491716065578
8.310000000000000497,0.753595413449157259,-0.070976410781212751
8.359999999999999432,0.753300274664207681,-0.070421288938691456
8.410000000000000142,0.753006576364933067,-0.069873012179693827
8.460000000000000853,0.752714338253388848,-0.069331468759899886
8.509999999999999787,0.752423578617819833,-0.068796549147900510
8.560000000000000497,0.752134314393807735,-0.068268145974909614
8.609999999999999432,0.751846561222890175,-0.067746153985732430
8.660000000000000142,0.751560333508758727,-0.067230469990955902
8.710000000000000853,0.751275644471144477,-0.066720992820330241
8.759999999999999787,0.750992506197487364,-0.066217623277309540
8.810000000000000497,0.750710929692486206,-0.065720264094721328
8.859999999999999432,0.750430924925617582,-0.065228819891535644
8.910000000000000142,0.750152500876714035,-0.064743197130704144
8.960000000000000853,0.749875665579677442,-0.064263304078041719
9.009999999999999787,0.749600426164413247,-0.063789050762122948
9.060000000000000497,0.749326788897054952,-0.063320348935166623
9.109999999999999432,0.749054759218553023,-0.062857112034882742
9.160000000000000142,0.748784341781695506,-0.062399255147256208
9.210000000000000853,0.748515540486627717,-0.061946694970243216
9.259999999999999787,0.748248358514928213,-0.061499349778355972
9.310000000000000497,0.747982798362308188,-0.061057139388112414
9.359999999999999432,0.747718861869982931,-0.060619985124328798
9.410000000000000142,0.747456550254777863,-0.060187809787232371
9.460000000000000853,0.747195864138012644,-0.059760537620373200
9.509999999999999787,0.746936803573222008,-0.059338094279314059
9.560000000000000497,0.746679368072753702,-0.058920406801077997
9.610000000000001208,0.746423556633292629,-0.058507403574334087
9.660000000000000142,0.746169367760354252,-0.058099014310301636
9.710000000000000853,0.745916799491788907,-0.057695170014354785
9.759999999999999787,0.745665849420336202,-0.057295802958308648
9.810000000000000497,0.745416514715268930,-0.056900846653369593
9.860000000000001208,0.745168792143162118,-0.056510235823732713
9.910000000000000142,0.744922678087822532,-0.056123906380808920
9.960000000000000853,0.744678168569413379,-0.055741795398066195
10.009999999999999787,0.744435259262804405,-0.055363841086468718
10.060000000000000497,0.744193945515179034,-0.054989982770498221
10.110000000000001208,0.743954222362929740,-0.054620160864743320
10.160000000000000142,0.743716084547866974,-0.054254316851041179
10.210000000000000853,0.743479526532771051,-0.053892393256158064
10.259999999999999787,0.743244542516312667,-0.053534333629994817
10.310000000000000497,0.743011126447366443,-0.053180082524303472
10.360000000000001208,0.742779272038741500,-0.052829585471902293
10.410000000000000142,0.742548972780352257,-0.052482788966376294
10.460000000000000853,0.742320221951852544,-0.052139640442250883
10.509999999999999787,0.742093012634752358,-0.051800088255626715
10.560000000000000497,0.741867337724037346,-0.051464081665263742
10.610000000000001208,0.741643189939313663,-0.051131570814103411
10.660000000000000142,0.741420561835493319,-0.050802506711217547
10.710000000000000853,0.741199445813038871,-0.050476841214173389
10.759999999999999787,0.740979834127787007,-0.050154527011804145
10.810000000000000497,0.740761718900364019,-0.049835517607374848
10.860000000000001208,0.740545092125211246,-0.049519767302133554
10.910000000000000142,0.740329945679235490,-0.049207231179238323
10.960000000000000853,0.740116271330098274,-0.048897865088050205
11.009999999999999787,0.739904060744158154,-0.048591625628783650
11.060000000000000497,0.739693305494081854,-0.048288470137504723
11.110000000000001208,0.739483997066132548,-0.047988356671469050
11.160000000000000142,0.739276126867151717,-0.047691243994790598
11.210000000000000853,0.739069686231245693,-0.047397091564433391
11.259999999999999787,0.738864666426187422,-0.047105859516517815
11.310000000000000497,0.738661058659544678,-0.046817508652934013
11.360000000000001208,0.738458854084546146,-0.046532000428254769
11.410000000000000142,0.738258043805694597,-0.046249296936940146
11.460000000000000853,0.738058618884139039,-0.045969360900827101
11.509999999999999787,0.737860570342811384,-0.045692155656896959
11.560000000000000497,0.737663889171340070,-0.045417645145313712
11.610000000000001208,0.737468566330749420,-0.045145793897726827
11.660000000000000142,0.737274592757949376,-0.044876567025831968
11.710000000000000853,0.737081959370028961,-0.044609930210183169
11.759999999999999787,0.736890657068355992,-0.044345849689250712
11.810000000000000497,0.736700676742495397,-0.044084292248718369
11.860000000000001208,0.736512009273948554,-0.043825225211014542
11.910000000000000142,0.736324645539724321,-0.043568616425071302
11.960000000000000853,0.736138576415745982,-0.043314434256306059
12.009999999999999787,0.735953792780102645,-0.043062647576820580
12.060000000000000497,0.735770285516147315,-0.042813225755811694
12.110000000000001208,0.735588045515453426,-0.042566138650189253
12.160000000000000142,0.735407063680630024,-0.042321356595395730
12.210000000000000853,0.735227330928002742,-0.042078850396423111
12.259999999999999787,0.735048838190168530,-0.041838591319022247
12.310000000000000497,0.734871576418423822,-0.041600551081099855
12.360000000000001208,0.734695536585077469,-0.041364701844299086
12.410000000000000142,0.734520709685646978,-0.041131016205759104
12.460000000000000853,0.734347086740945287,-0.040899467190049381
12.509999999999999787,0.734174658799064739,-0.040670028241274761
12.560000000000000497,0.734003416937257125,-0.040442673215347218
12.610000000000001208,0.733833352263718153,-0.040217376372420212
12.660000000000000142,0.733664455919278535,-0.039994112369482186
12.710000000000000853,0.733496719079005044,-0.039772856253105088
12.759999999999999787,0.733330132953715741,-0.039553583452344693
12.810000000000000497,0.733164688791412611,-0.039336269771788716
12.860000000000001208,0.733000377878634923,-0.039120891384749862
12.910000000000000142,0.732837191541737099,-0.038907424826599882
12.960000000000000853,0.732675121148091080,-0.038695846988241779
13.009999999999999787,0.732514158107221980,-0.038486135109716817
13.060000000000000497,0.732354293871872897,-0.038278266773943102
13.110000000000001208,0.732195519939008332,-0.038072219900583050
13.160000000000000142,0.732037827850752776,-0.037867972740036428
13.210000000000000853,0.731881209195270555,-0.037665503867556301
13.259999999999999787,0.731725655607590952,-0.037464792177484989
13.310000000000000497,0.731571158770373597,-0.037265816877607411
13.360000000000001208,0.731417710414626887,-0.037068557483618939
13.410000000000000142,0.731265302320371346,-0.036872993813705443
13.460000000000000853,0.731113926317256912,-0.036679105983232686
13.509999999999999787,0.730963574285134254,-0.036486874399542853
13.560000000000000497,0.730814238154580131,-0.036296279756855683
13.610000000000001208,0.730665909907381228,-0.036107303031271791
13.660000000000000142,0.730518581576976911,-0.035919925475876018
13.710000000000000853,0.730372245248862462,-0.035734128615938547
13.759999999999999787,0.730226893060955895,-0.035549894244211427
13.810000000000000497,0.730082517203927361,-0.035367204416318652
13.860000000000001208,0.729939109921496132,-0.035186041446237541
13.910000000000000142,0.729796663510692500,-0.035006387901869350
13.960000000000000853,0.729655170322090152,-0.034828226600697280
14.009999999999999787,0.729514622760006226,-0.034651540605529968
14.060000000000000497,0.729375013282676732,-0.034476313220328236
14.110000000000001208,0.729236334402397990,-0.034302527986113857
14.160000000000000142,0.729098578685647869,-0.034130168676957957
14.210000000000000853,0.728961738753178157,-0.033959219296047630
14.259999999999999787,0.728825807280084392,-0.033789664071829068
14.310000000000000497,0.728690776995851497,-0.033621487454225267
14.360000000000001208,0.728556640684379087,-0.033454674110927098
14.410000000000000142,0.728423391183984470,-0.033289208923755725
14.460000000000000853,0.728291021387385662,-0.033125076985095141
14.509999999999999787,0.728159524241666745,-0.032962263594393172
14.560000000000000497,0.728028892748222689,-0.032800754254729461
14.610000000000001208,0.727899119962689301,-0.032640534669449009
14.660000000000000142,0.727770198994854178,-0.032481590738859985
14.710000000000000853,0.727642123008554575,-0.032323908556994130
14.759999999999999787,0.727514885221557606,-0.032167474408428792
14.810000000000000497,0.727388478905428237,-0.032012274765169005
14.860000000000001208,0.727262897385382301,-0.031858296283588418
14.910000000000000142,0.727138134040127948,-0.031705525801427839
14.960000000000000853,0.727014182301693568,-0.031553950334850214
15.009999999999999787,0.726891035655244933,-0.031403557075550703
15.060000000000000497,0.726768687638890687,-0.031254333387920837
15.110000000000001208,0.726647131843478400,-0.031106266806265645
15.160000000000000142,0.726526361912379182,-0.030959345032072368
15.210000000000000853,0.726406371541264972,-0.030813555931330061
15.259999999999999787,0.726287154477874397,-0.030668887531898732
15.310000000000000497,0.726168704521773178,-0.030525328020927122
15.360000000000001208,0.726051015524104004,-0.030382865742318022
15.410000000000000142,0.725934081387330732,-0.030241489194240311
15.460000000000000853,0.725817896064974932,-0.030101187026686415
