# omega (a.u.), Re alpha(w), Im alpha(w)
0.000367493221756550,0.000000219558905349,-0.000297194457377729
0.002207905167988250,0.000007925173037085,-0.001785525904799123
0.004048317114219949,0.000026643183306895,-0.003273758054793006
0.005888729060451649,0.000056371937886753,-0.004761808154631240
0.007729141006683348,0.000097108813469128,-0.006249593481954203
0.009569552952915049,0.000148850215765012,-0.007737031358563274
0.011409964899146748,0.000211591580189825,-0.009224039164198406
0.013250376845378447,0.000285327372730760,-0.010710534350296176
0.015090788791610148,0.000370051091000504,-0.012196434453723672
0.016931200737841847,0.000465755265474891,-0.013681657110483577
0.018771612684073548,0.000572431460911657,-0.015166120069385952
0.020612024630305245,0.000690070277955783,-0.016649741205681929
0.022452436576536946,0.000818661354923796,-0.018132438534655002
0.024292848522768647,0.000958193369773085,-0.019614130225165227
0.026133260469000344,0.001108654042250983,-0.021094734613141843
0.027973672415232041,0.001270030136222118,-0.022574170215019809
0.029814084361463745,0.001442307462181571,-0.024052355741116034
0.031654496307695443,0.001625470879940805,-0.025529210108940412
0.033494908253927147,0.001819504301494285,-0.027004652456437850
0.035335320200158844,0.002024390694064012,-0.028478602155156484
0.037175732146390542,0.002240112083318966,-0.029950978823338092
0.039016144092622246,0.002466649556769472,-0.031421702338926286
0.040856556038853936,0.002703983267336115,-0.032890692852488308
0.042696967985085640,0.002952092437091311,-0.034357870800046320
0.044537379931317345,0.003210955361172566,-0.035823156915814031
0.046377791877549042,0.003480549411865413,-0.037286472244834577
0.048218203823780746,0.003760851042856026,-0.038747738155515812
0.050058615770012437,0.004051835793649733,-0.040206876352058711
0.051899027716244141,0.004353478294159507,-0.041663808886775608
0.053739439662475845,0.004665752269454108,-0.043118458172293532
0.055579851608707535,0.004988630544672591,-0.044570746993639956
0.057420263554939240,0.005322085050099969,-0.046020598520206388
0.059260675501170937,0.005666086826400394,-0.047467936317586557
0.061101087447402641,0.006020606030012326,-0.048912684359285592
0.062941499393634345,0.006385611938696221,-0.050354767038296749
0.064781911339866036,0.006761072957240537,-0.051794109178541985
0.066622323286097740,0.007146956623316509,-0.053230636046173584
0.068462735232329444,0.007543229613487190,-0.054664273360732762
0.070303147178561134,0.007949857749364714,-0.056094947306162948
0.072143559124792839,0.008366806003912571,-0.057522584541673895
0.073983971071024529,0.008794038507896127,-0.058947112212453925
0.075824383017256219,0.009231518556473322,-0.060368457960227349
0.077664794963487938,0.009679208615928064,-0.061786549933654088
0.079505206909719628,0.010137070330541382,-0.063201316798568594
0.081345618855951318,0.010605064529599190,-0.064612687748055828
0.083186030802183022,0.011083151234535805,-0.066020592512360907
0.085026442748414727,0.011571289666207612,-0.067424961368630590
0.086866854694646431,0.012069438252297685,-0.068825725150483880
0.088707266640878121,0.012577554634848184,-0.070222815257409074
0.090547678587109812,0.013095595677917285,-0.071616163663985696
0.092388090533341530,0.013623517475359578,-0.073005702928928315
0.094228502479573220,0.014161275358726248,-0.074391366203950524
0.096068914425804924,0.014708823905284323,-0.075773087242447579
0.097909326372036629,0.015266116946150141,-0.077150800407994699
0.099749738318268319,0.015833107574536268,-0.078524440682659957
0.101590150264500023,0.016409748154110157,-0.079893943675130114
0.103430562210731727,0.016995990327459520,-0.081259245628647017
0.105270974156963418,0.017591785024662653,-0.082620283428754049
0.107111386103195122,0.018197082471963021,-0.083976994610850092
0.108951798049426812,0.018811832200544290,-0.085329317367550409
0.110792209995658517,0.019435983055399890,-0.086677190555853018
0.112632621941890221,0.020069483204302244,-0.088020553704109050
0.114473033888121911,0.020712280146859691,-0.089359347018796581
0.116313445834353629,0.021364320723666994,-0.090693511391095952
0.118153857780585320,0.022025551125539222,-0.092022988403267308
0.119994269726817010,0.022695916902831886,-0.093347720334827716
0.121834681673048728,0.023375362974842762,-0.094667650168528406
0.123675093619280418,0.024063833639291175,-0.095982721596131276
0.125515505565512137,0.024761272581873977,-0.097292879023983078
0.127355917511743827,0.025467622885894131,-0.098598067578389251
0.129196329457975517,0.026182827041960760,-0.099898233110783996
0.131036741404207235,0.026906826957755522,-0.101193322202698846
0.132877153350438926,0.027639563967865832,-0.102483282170527948
0.134717565296670616,0.028380978843677903,-0.103768061070091344
0.136557977242902306,0.029131011803329929,-0.105047607700994527
0.138398389189134025,0.029889602521722593,-0.106321871610786295
0.140238801135365715,0.030656690140583046,-0.107590803098913390
0.142079213081597405,0.031432213278577231,-0.108854353220473335
0.143919625027829096,0.032216110041476072,-0.110112473789765172
0.145760036974060814,0.033008318032359506,-0.111365117383639051
0.147600448920292504,0.033808774361869916,-0.112612237344644220
0.149440860866524222,0.034617415658500385,-0.113853787783977409
0.151281272812755913,0.035434178078923281,-0.115089723584230988
0.153121684758987603,0.036258997318350819,-0.116320000401942514
0.154962096705219321,0.037091808620927570,-0.117544574669945903
0.156802508651450984,0.037932546790152635,-0.118763403599525294
0.158642920597682702,0.038781146199327383,-0.119976445182373201
0.160483332543914420,0.039637540802024529,-0.121183658192352800
0.162323744490146082,0.040501664142580045,-0.122385002187066286
0.164164156436377801,0.041373449366602297,-0.123580437509230798
0.166004568382609519,0.042252829231494697,-0.124769925287862071
0.167844980328841209,0.043139736116993330,-0.125953427439268073
0.169685392275072899,0.044034102035711196,-0.127130906667853705
0.171525804221304617,0.044935858643692511,-0.128302326466738170
0.173366216167536308,0.045844937250968262,-0.129467651118185839
0.175206628113767998,0.046761268832116842,-0.130626845693853411
0.177047040059999716,0.047684784036821644,-0.131779876054854139
0.178887452006231407,0.048615413200425263,-0.132926708851640568
0.180727863952463097,0.049553086354478831,-0.134067311523708765
0.182568275898694815,0.050497733237282981,-0.135201652299124647
0.184408687844926505,0.051449283304415505,-0.136329700193874498
0.186249099791158196,0.052407665739248085,-0.137451425011042405
0.188089511737389914,0.053372809463446538,-0.138566797339815473
0.189929923683621604,0.054344643147451105,-0.139675788554319807
0.191770335629853322,0.055323095220938152,-0.140778370812287973
0.193610747576084985,0.056308093883255902,-0.141874517053562410
0.195451159522316703,0.057299567113838074,-0.142964200998434043
0.197291571468548421,0.058297442682586312,-0.144047397145820655
0.199131983414780084,0.059301648160223791,-0.145124080771285469
0.200972395361011802,0.060312110928617275,-0.146194227924900166
0.202812807307243520,0.061328758191062489,-0.147257815428952665
0.204653219253475183,0.062351516982533689,-0.148314820875503156
0.206493631199706901,0.063380314179894107,-0.149365222623790567
0.208334043145938619,0.064415076512064295,-0.150408999797491894
0.210174455092170281,0.065455730570147724,-0.151446132281836565
0.212014867038402000,0.066502202817511319,-0.152476600720578254
0.213855278984633718,0.067554419599816451,-0.153500386512827908
0.215695690930865380,0.068612307155002911,-0.154517471809747925
0.217536102877097098,0.069675791623218630,-0.155527839511113042
0.219376514823328816,0.070744799056698324,-0.156531473261738080
0.221216926769560479,0.071819255429585185,-0.157528357447776296
0.223057338715792197,0.072899086647695219,-0.158518477192891499
0.224897750662023888,0.073984218558222667,-0.159501818354304381
0.226738162608255606,0.075074576959384659,-0.160478367518718412
0.228578574554487296,0.076170087610002823,-0.161448111998126004
0.230418986500718986,0.077270676239019620,-0.162411039825498149
0.232259398446950704,0.078376268554949918,-0.163367139750361101
0.234099810393182395,0.079486790255262812,-0.164316401234260667
0.235940222339414085,0.080602167035695782,-0.165258814446119451
0.237780634285645803,0.081722324599496160,-0.166194370257487845
0.239621046231877494,0.082847188666590577,-0.167123060237691745
0.241461458178109184,0.083976684982679572,-0.168044876648880764
0.243301870124340902,0.085110739328258217,-0.168959812440977741
0.245142282070572592,0.086249277527556428,-0.169867861246534885
0.246982694016804283,0.087392225457404521,-0.170769017375496407
0.248823105963036001,0.088539509056015195,-0.171663275809872562
0.250663517909267719,0.089691054331687017,-0.172550632198326531
0.252503929855499409,0.090846787371423474,-0.173431082850677376
0.254344341801731100,0.092006634349470207,-0.174304624732321584
0.256184753747962790,0.093170521535764481,-0.175171255458576147
0.258025165694194480,0.094338375304300948,-0.176030973288945652
0.259865577640426171,0.095510122141409456,-0.176883777121315311
0.261705989586657917,0.096685688653942795,-0.177729666486074467
0.263546401532889552,0.097865001577377264,-0.178568641540170853
0.265386813479121297,0.099047987783822247,-0.179400703061101147
0.267227225425352988,0.100234574289936734,-0.180225852440836026
0.269067637371584678,0.101424688264753968,-0.181044091679688213
0.270908049317816368,0.102618257037415436,-0.181855423380120257
0.272748461264048114,0.103815208104807072,-0.182659850740499202
0.274588873210279749,0.105015469139101258,-0.183457377548796929
0.276429285156511495,0.106218967995205055,-0.184248008176242650
0.278269697102743185,0.107425632718109204,-0.185031747570925692
0.280110109048974876,0.108635391550141999,-0.185808601251355426
0.281950520995206566,0.109848172938123462,-0.186578575299976956
0.283790932941438312,0.111063905540422364,-0.187341676356647863
0.285631344887670002,0.112282518233912249,-0.188097911612076785
0.287471756833901693,0.113503940120830232,-0.188847288801227281
0.289312168780133383,0.114728100535532729,-0.189589816196687772
0.291152580726365073,0.115954929051151831,-0.190325502602012420
0.292992992672596764,0.117184355486151318,-0.191054357345032511
0.294833404618828510,0.118416309910778561,-0.191776390271142710
0.296673816565060200,0.119650722653415573,-0.192491611736563262
0.298514228511291890,0.120887524306828822,-0.193200032601581168
0.300354640457523636,0.122126645734313991,-0.193901664223772086
0.302195052403755271,0.123368018075739452,-0.194596518451204598
0.304035464349986961,0.124611572753484653,-0.195284607615630684
0.305875876296218652,0.125857241478277759,-0.195965944525662794
0.307716288242450398,0.127104956254926293,-0.196640542459940226
0.309556700188682088,0.128354649387945913,-0.197308415160287132
0.311397112134913834,0.129606253487085266,-0.197969576824864213
0.313237524081145469,0.130859701472745116,-0.198624042101315429
0.315077936027377159,0.132114926581295589,-0.199271826079912284
0.316918347973608849,0.133371862370286476,-0.199912944286697591
0.318758759919840595,0.134630442723556620,-0.200547412676630316
0.320599171866072286,0.135890601856235999,-0.201175247626733500
0.322439583812303976,0.137152274319645440,-0.201796465929247326
0.324279995758535666,0.138415395006092401,-0.202411084784789003
0.326120407704767357,0.139679899153562076,-0.203019121795520924
0.327960819650999047,0.140945722350305225,-0.203620594958328849
0.329801231597230793,0.142212800539321865,-0.204215522658013432
0.331641643543462483,0.143481070022742824,-0.204803923660492826
0.333482055489694174,0.144750467466106675,-0.205385817106023605
0.335322467435925919,0.146020929902535040,-0.205961222502435981
0.337162879382157554,0.147292394736803917,-0.206530159718388978
0.339003291328389245,0.148564799749314469,-0.207092648976644950
0.340843703274620990,0.149838083099960551,-0.207648710847365886
0.342684115220852681,0.151112183331894079,-0.208198366241432287
0.344524527167084371,0.152387039375191852,-0.208741636403786290
0.346364939113316117,0.153662590550417838,-0.209278542906801673
0.348205351059547752,0.154938776572088432,-0.209809107643679299
0.350045763005779442,0.156215537552035350,-0.210333352821872155
0.351886174952011188,0.157492814002670539,-0.210851300956540089
0.353726586898242878,0.158770546840151600,-0.211362974864034381
0.355566998844474569,0.160048677387448129,-0.211868397655416513
0.357407410790706315,0.161327147377311075,-0.212367592730008464
0.359247822736938005,0.162605898955144657,-0.212860583768978540
0.361088234683169640,0.163884874681780146,-0.213347394728962636
0.362928646629401330,0.165164017536155810,-0.213828049835722650
0.364769058575633076,0.166443270917898817,-0.214302573577842492
0.366609470521864766,0.167722578649813436,-0.214770990700462128
0.368449882468096512,0.169001884980274686,-0.215233326199053332
0.370290294414328203,0.170281134585529126,-0.215689605313234584
0.372130706360559838,0.171560272571899985,-0.216139853520628700
0.373971118306791528,0.172839244477904802,-0.216584096530762910
0.375811530253023274,0.174117996276275555,-0.217022360279012005
0.377651942199254964,0.175396474375892397,-0.217454670920586374
0.379492354145486654,0.176674625623626319,-0.217881054824565545
0.381332766091718400,0.177952397306091026,-0.218301538567976516
0.383173178037950091,0.179229737151307827,-0.218716148929919890
0.385013589984181726,0.180506593330281823,-0.219124912885742956
0.386854001930413471,0.181782914458491957,-0.219527857601261422
0.388694413876645162,0.183058649597293122,-0.219925010427028361
0.390534825822876852,0.184333748255235325,-0.220316398892654669
0.392375237769108598,0.185608160389296589,-0.220702050701177988
0.394215649715340288,0.186881836406032176,-0.221081993723482806
0.396056061661571923,0.188154727162642393,-0.221456255992771717
0.397896473607803669,0.189426783967956092,-0.221824865699087437
0.399736885554035359,0.190697958583336186,-0.222187851183888757
0.401577297500267050,0.191968203223501388,-0.222545240934676924
0.403417709446498796,0.193237470557271029,-0.222897063579676730
0.405258121392730486,0.194505713708231137,-0.223243347882569748
0.407098533338962121,0.195772886255321771,-0.223584122737283175
0.408938945285193867,0.197038942233349113,-0.223919417162830037
0.410779357231425557,0.198303836133421396,-0.224249260298206854
0.412619769177657247,0.199567522903308314,-0.224573681397344321
0.414460181123888993,0.200829957947730703,-0.224892709824113551
0.416300593070120684,0.202091097128572067,-0.225206375047387802
0.418141005016352374,0.203350896765022604,-0.225514706636159940
0.419981416962584009,0.204609313633649148,-0.225817734254715574
0.421821828908815755,0.205866304968397251,-0.226115487657861713
0.423662240855047445,0.207121828460521906,-0.226407996686212643
0.425502652801279191,0.208375842258451877,-0.226695291261531678
0.427343064747510881,0.209628304967585971,-0.226977401382128990
0.429183476693742572,0.210879175650023898,-0.227254357118316791
0.431023888639974206,0.212128413824229228,-0.227526188607920649
0.432864300586205952,0.213375979464632382,-0.227792926051848005
0.434704712532437643,0.214621833001165968,-0.228054599709713202
0.436545124478669333,0.215865935318740626,-0.228311239895519019
0.438385536424901079,0.217108247756657685,-0.228562876973396445
0.440225948371132769,0.218348732107962323,-0.228809541353399926
0.442066360317364404,0.219587350618736910,-0.229051263487359602
0.443906772263596150,0.220824065987336560,-0.229288073864791386
0.445747184209827840,0.222058841363565379,-0.229520003008862494
0.447587596156059531,0.223291640347798387,-0.229747081472414627
0.449428008102291277,0.224522426990045626,-0.229969339834043385
0.451268420048522967,0.225751165788963648,-0.230186808694234246
0.453108831994754657,0.226977821690812043,-0.230399518671554782
0.454949243940986348,0.228202360088358536,-0.230607500398903265
0.456789655887218038,0.229424746819729519,-0.230810784519813184
0.458630067833449728,0.230644948167214286,-0.231009401684814097
0.460470479779681474,0.231862930856014837,-0.231203382547848085
0.462310891725913164,0.233078662052950775,-0.231392757762741597
0.464151303672144855,0.234292109365112994,-0.231577557979732451
0.465991715618376545,0.235503240838473238,-0.231757813842052657
0.467832127564608236,0.236712024956445277,-0.231933555982566209
0.469672539510839926,0.237918430638403400,-0.232104815020460459
0.471512951457071672,0.239122427238154078,-0.232271621557993024
0.473353363403303362,0.240323984542367003,-0.232434006177293179
0.475193775349535052,0.241523072768962149,-0.232591999437215341
0.477034187295766798,0.242719662565456407,-0.232745631870248437
0.478874599241998433,0.243913725007269683,-0.232894933979477053
0.480715011188230124,0.245105231595990902,-0.233039936235596656
0.482555423134461814,0.246294154257605924,-0.233180669073980384
0.484395835080693560,0.247480465340688460,-0.233317162891799379
0.486236247026925250,0.248664137614552583,-0.233449448045195018
0.488076658973156996,0.249845144267370700,-0.233577554846501834
0.489917070919388631,0.251023458904255869,-0.233701513561523799
0.491757482865620321,0.252199055545310413,-0.233821354406859028
0.493597894811852012,0.253371908623641340,-0.233937107547278450
0.495438306758083757,0.254541992983342735,-0.234048803093151625
0.497278718704315448,0.255709283877446625,-0.234156471097924396
0.499119130650547138,0.256873756965844802,-0.234260141555646256
0.500959542596778884,0.258035388313178737,-0.234359844398545292
0.502799954543010519,0.259194154386701237,-0.234455609494653716
0.504640366489242265,0.260350032054111613,-0.234547466645480540
0.506480778435473900,0.261502998581359780,-0.234635445583733449
0.508321190381705645,0.262653031630428579,-0.234719575971086725
0.510161602327937391,0.263800109257086135,-0.234799887395998108
0.512002014274169026,0.264944209908615669,-0.234876409371570699
0.513842426220400661,0.266085312421522058,-0.234949171333462270
0.515682838166632407,0.267223396019212078,-0.235018202637840679
0.517523250112864153,0.268358440309654500,-0.235083532559384134
0.519363662059095788,0.269490425283018253,-0.235145190289325984
0.521204074005327533,0.270619331309288724,-0.235203204933546323
0.523044485951559279,0.271745139135864289,-0.235257605510704876
0.524884897897790914,0.272867829885133528,-0.235308420950420177
0.526725309844022660,0.273987385052033627,-0.235355680091490355
0.528565721790254295,0.275103786501590564,-0.235399411680157322
0.530406133736486041,0.276217016466442977,-0.235439644368413609
0.532246545682717787,0.277327057544346556,-0.235476406712350872
0.534086957628949421,0.278433892695666874,-0.235509727170550326
0.535927369575181167,0.279537505240854356,-0.235539634102512968
0.537767781521412802,0.280637878857904977,-0.235566155767131885
0.539608193467644548,0.281734997579806856,-0.235589320321204110
0.541448605413876183,0.282828845791976258,-0.235609155817981808
0.543289017360107929,0.283919408229677428,-0.235625690205763350
0.545129429306339675,0.285006669975433724,-0.235638951326522017
0.546969841252571309,0.286090616456425362,-0.235648966914574737
0.548810253198803055,0.287171233441878726,-0.235655764595286837
0.550650665145034690,0.288248507040443580,-0.235659371883815472
0.552491077091266436,0.289322423697563280,-0.235659816183889231
0.554331489037498182,0.290392970192834443,-0.235657124786624428
0.556171900983729817,0.291460133637359287,-0.235651324869377593
0.558012312929961563,0.292523901471091363,-0.235642443494633258
0.559852724876193197,0.293584261460172802,-0.235630507608926287
0.561693136822424943,0.294641201694266108,-0.235615544041800462
0.563533548768656578,0.295694710583880860,-0.235597579504799259
0.565373960714888324,0.296744776857694126,-0.235576640590491687
0.567214372661120070,0.297791389559866726,-0.235552753771530482
0.569054784607351705,0.298834538047354992,-0.235525945399743919
0.570895196553583451,0.299874211987220307,-0.235496241705259651
