# omega (a.u.), Re alpha(w), Im alpha(w)
0.000000000000000000,0.000000000000000000,0.000000000000000000
0.029458374489503000,0.001408160994898245,-0.023766757284152982
0.058916748979005999,0.005601001596347027,-0.047197659909139981
0.088375123468509009,0.012485118555171138,-0.069970954078403730
0.117833497958011998,0.021909792761910105,-0.091791906318374389
0.147291872447515015,0.033673991344137399,-0.112403523788894871
0.176750246937018018,0.047535370875442663,-0.131594351455861763
0.206208621426520994,0.063220600440085137,-0.149202988360457339
0.235666995916023997,0.080436274897145596,-0.165119337601921212
0.265125370405526972,0.098879715434226759,-0.179282924298414248
0.294583744895030031,0.118249044377761264,-0.191678842992021731
0.324042119384532978,0.138252055289568382,-0.202332015008390403
0.353500493874036037,0.158613555852897298,-0.211300453434996316
0.382958868363538985,0.179081019189768154,-0.218668170248907084
0.412417242853041988,0.199428522223511984,-0.224538245393029162
0.441875617342544991,0.219459066159242405,-0.229026439725457526
0.471333991832047994,0.239005458521756031,-0.232255596050999769
0.500792366321550997,0.257929987943506578,-0.234350950805332636
0.530250740811053944,0.276123145277008930,-0.235436381906045600
0.559709115300557003,0.293501643145192725,-0.235631548235875427
0.589167489790060062,0.310005967199799892,-0.235049831407154269
0.618625864279563009,0.325597662468074034,-0.233796966738140960
0.648084238769065957,0.340256522751819890,-0.231970242729505949
0.677542613258568904,0.353977814452447082,-0.229658151855009929
0.707000987748072074,0.366769631531236207,-0.226940385946488937
0.736459362237575021,0.378650447522850209,-0.223888083542088612
0.765917736727077969,0.389646904593944410,-0.220564251880792123
0.795376111216581028,0.399791858848770054,-0.217024301175086420
0.824834485706083975,0.409122685206899206,-0.213316642429976694
0.854292860195587034,0.417679833692060132,-0.209483311927929683
0.883751234685089981,0.425505621205309548,-0.205560595418673026
0.913209609174593040,0.432643238101617700,-0.201579633098675687
0.942667983664095988,0.439135946470406102,-0.197566992812637066
0.972126358153598935,0.445026446335671955,-0.193545203787515024
1.001584732643101994,0.450356386530861019,-0.189533246861121218
1.031043107132604941,0.455165998355093748,-0.185546999823671593
1.060501481622107889,0.459493831959032595,-0.181599638359464133
1.089959856111611058,0.463376577499156672,-0.177701994335125485
1.119418230601114006,0.466848955264274001,-0.173862873978479521
1.148876605090616954,0.469943661097931953,-0.170089338947631230
1.178334979580120123,0.472691355437421745,-0.166386953497968254
1.207793354069622849,0.475120686118754743,-0.162760000988876996
1.237251728559126018,0.477258336734939614,-0.159211672888017075
1.266710103048629188,0.479129093776154091,-0.155744233270874832
1.296168477538131913,0.480755927029860641,-0.152359161607788868
1.325626852027635083,0.482160078788436308,-0.149057276401868888
1.355085226517137809,0.483361158317144990,-0.145838842004743008
1.384543601006640978,0.484377238793780918,-0.142703660703483476
1.414001975496144148,0.485224954560938726,-0.139651151948268659
1.443460349985646873,0.485919597049786545,-0.136680420380572293
1.472918724475150043,0.486475208156598227,-0.133790314128228505
1.502377098964652991,0.486904670194642397,-0.130979474657554107
1.531835473454155938,0.487219791817379566,-0.128246379313838060
1.561293847943659108,0.487431389525604220,-0.125589377539369662
1.590752222433162055,0.487549364541039310,-0.123006721631800015
1.620210596922665003,0.487582774960345355,-0.120496592793864141
1.649668971412167950,0.487539903203643765,-0.118057123127060196
1.679127345901671120,0.487428318846481357,-0.115686414135503110
1.708585720391174068,0.487254936978651354,-0.113382552230596817
1.738044094880677015,0.487026072271563470,-0.111143621661203673
1.767502469370179963,0.486747488961351782,-0.108967715236539045
1.796960843859682910,0.486424446970372071,-0.106852943159062422
1.826419218349186080,0.486061744397480844,-0.104797440241262974
1.855877592838688805,0.485663756609292452,-0.102799371742626447
1.885335967328191975,0.485234472162017927,-0.100856938030485246
1.914794341817695145,0.484777525777598306,-0.098968378240253160
1.944252716307197870,0.484296228589680522,-0.097131973086150972
1.973711090796701040,0.483793595865214754,-0.095346046952444655
2.003169465286203987,0.483272372396689243,-0.093608969377001749
2.032627839775706935,0.482735055748700903,-0.091919156023238080
2.062086214265209883,0.482183917531035344,-0.090275069222950310
2.091544588754712830,0.481621022858928882,-0.088675218160807923
2.121002963244215778,0.481048248149937463,-0.087118158761171793
2.150461337733719169,0.480467297395943016,-0.085602493329187054
2.179919712223222117,0.479879717038400544,-0.084126869990581554
2.209378086712725064,0.479286909565022512,-0.082689981968123230
2.238836461202228012,0.478690145936755573,-0.081290566727106731
2.268294835691730960,0.478090576945133905,-0.079927405017432382
2.297753210181233907,0.477489243591897372,-0.078599319835699663
2.327211584670737299,0.476887086575153940,-0.077305175327173251
2.356669959160240246,0.476284954959285245,-0.076043875644416351
2.386128333649743194,0.475683614099266794,-0.074814363776747314
2.415586708139245697,0.475083752884041477,-0.073615620362412343
2.445045082628749089,0.474485990358032461,-0.072446662493421243
2.474503457118252037,0.473890881774778394,-0.071306542521324137
2.503961831607754984,0.473298924131992538,-0.070194346870776678
2.533420206097258376,0.472710561233055548,-0.069109194866516219
2.562878580586760879,0.472126188316012829,-0.068050237578323694
2.592336955076263827,0.471546156287570351,-0.067016656687650805
2.621795329565767219,0.470970775596278368,-0.066007663378830142
2.651253704055270166,0.470400319776104248,-0.065022497257135978
2.680712078544773114,0.469835028688853018,-0.064060425295412268
2.710170453034275617,0.469275111491393671,-0.063120740810518938
2.739628827523779009,0.468720749351372645,-0.062202762470451207
2.769087202013281956,0.468172097933015174,-0.061305833332658086
2.798545576502784904,0.467629289672725712,-0.060429319913805082
2.828003950992288296,0.467092435862465238,-0.059572611290997925
2.857462325481790799,0.466561628557315755,-0.058735118234290153
2.886920699971293747,0.466036942322210324,-0.057916272370139348
2.916379074460797138,0.465518435831493105,-0.057115525375350487
2.945837448950300086,0.465006153333793248,-0.056332348200937840
2.975295823439803033,0.464500125993608182,-0.055566230325256316
3.004754197929305981,0.464000373120000920,-0.054816679035689098
3.034212572418808929,0.463506903291924677,-0.054083218738127332
3.063670946908311876,0.463019715388858721,-0.053365390293443775
3.093129321397815268,0.462538799534694289,-0.052662750380136174
3.122587695887318215,0.462064137962133914,-0.051974870882301405
3.152046070376820719,0.461595705804234202,-0.051301338302092575
3.181504444866324111,0.461133471819168084,-0.050641753195811309
3.210962819355827058,0.460677399053754266,-0.049995729632790566
3.240421193845330006,0.460227445450836881,-0.049362894676232554
3.269879568334833397,0.459783564405167433,-0.048742887885178124
3.299337942824335901,0.459345705272043214,-0.048135360836800145
3.328796317313838848,0.458913813832604600,-0.047539976668229338
3.358254691803342240,0.458487832719358390,-0.046956409637142343
3.387713066292845188,0.458067701805205896,-0.046384344700361083
3.417171440782348135,0.457653358558964440,-0.045823477109735063
3.446629815271850639,0.457244738370141846,-0.045273512024600650
3.476088189761354030,0.456841774845475390,-0.044734164140134411
3.505546564250856978,0.456444400079552171,-0.044205157330940874
3.535004938740359925,0.456052544901628443,-0.043686224309238006
3.564463313229863317,0.455666139100594225,-0.043177106297027916
3.593921687719365821,0.455285111629868233,-0.042677552711661661
3.623380062208868768,0.454909390793862889,-0.042187320864231374
3.652838436698372160,0.454538904417523870,-0.041706175670244136
3.682296811187875107,0.454173580000325650,-0.041233889372053877
3.711755185677377611,0.453813344855993672,-0.040770241272548871
3.741213560166881003,0.453458126239118575,-0.040315017479613538
3.770671934656383950,0.453107851459733202,-0.039868010660902294
3.800130309145886898,0.452762447986842786,-0.039429019808483338
3.829588683635390289,0.452421843541803148,-0.038997850012928846
3.859047058124893237,0.452085966182392662,-0.038574312246446044
3.888505432614395740,0.451754744378332629,-0.038158223154661018
3.917963807103899132,0.451428107078965302,-0.037749404856684349
3.947422181593402080,0.451105983773737396,-0.037347684753103134
3.976880556082905027,0.450788304546083429,-0.036952895341560363
4.006338930572407975,0.450475000121256297,-0.036564874039596434
4.035797305061911366,0.450166001908611391,-0.036183463014443237
4.065255679551413870,0.449861242038809228,-0.035808509019473689
4.094714054040917262,0.449560653396359200,-0.035439863237023486
4.124172428530419765,0.449264169647904499,-0.035077381127314275
4.153630803019923157,0.448971725266603727,-0.034720922283219394
4.183089177509425660,0.448683255552946803,-0.034370350290624886
4.212547551998929052,0.448398696652309470,-0.034025532594149512
4.242005926488431555,0.448117985569531585,-0.033686340367997995
4.271464300977934947,0.447841060180773909,-0.033352648391732000
4.300922675467438339,0.447567859242899935,-0.033024334930752380
4.330381049956940842,0.447298322400596637,-0.032701281621296402
4.359839424446444234,0.447032390191441475,-0.032383373359761151
4.389297798935946737,0.446770004049097780,-0.032070498196173962
4.418756173425450129,0.446511106304817607,-0.031762547231637489
4.448214547914952632,0.446255640187400382,-0.031459414519586094
4.477672922404456024,0.446003549821762324,-0.031160996970695753
4.507131296893959416,0.445754780226244429,-0.030867194261298230
4.536589671383461919,0.445509277308784313,-0.030577908745156031
4.566048045872965311,0.445266987862065589,-0.030293045368460923
4.595506420362467814,0.445027859557748429,-0.030012511587925457
4.624964794851971206,0.444791840939876115,-0.029736217291841904
4.654423169341474598,0.444558881417547402,-0.029464074723989268
4.683881543830977101,0.444328931256934900,-0.029195998410273500
4.713339918320480493,0.444101941572723036,-0.028931905087991677
4.742798292809982996,0.443877864319033866,-0.028671713637615594
4.772256667299486388,0.443656652279904806,-0.028415345016993901
4.801715041788989780,0.443438259059374673,-0.028162722197877878
4.831173416278491395,0.443222639071228497,-0.027913770104678395
4.860631790767994787,0.443009747528454401,-0.027668415555366623
4.890090165257498178,0.442799540432451622,-0.027426587204434555
4.919548539747000682,0.442591974562032364,-0.027188215487834778
4.949006914236504073,0.442387007462255399,-0.026953232569822561
4.978465288726007465,0.442184597433122439,-0.026721572291626708
5.007923663215509968,0.441984703518170097,-0.026493170121878538
5.037382037705013360,0.441787285492986181,-0.026267963108731193
5.066840412194516752,0.441592303853671542,-0.026045889833605080
5.096298786684018367,0.441399719805278479,-0.025826890366496769
5.125757161173521759,0.441209495250237727,-0.025610906222792489
5.155215535663025150,0.441021592776799309,-0.025397880321529041
5.184673910152527654,0.440835975647505429,-0.025187756945047459
5.214132284642031046,0.440652607787703932,-0.024980481699987418
5.243590659131534437,0.440471453774125499,-0.024776001479571982
5.273049033621036941,0.440292478823529176,-0.024574264427134784
5.302507408110540332,0.440115648781435720,-0.024375219900843383
5.331965782600042836,0.439940930110950534,-0.024178818439574749
5.361424157089546227,0.439768289881691643,-0.023985011729900373
5.390882531579049619,0.439597695758828899,-0.023793752574140310
5.420340906068551234,0.439429115992239328,-0.023604994859447150
5.449799280558054626,0.439262519405790586,-0.023418693527882339
5.479257655047558018,0.439097875386749437,-0.023234804547449143
5.508716029537060521,0.438935153875329331,-0.023053284884047429
5.538174404026563913,0.438774325354374495,-0.022874092474317296
5.567632778516067305,0.438615360839186952,-0.022697186199339723
5.597091153005569808,0.438458231867498827,-0.022522525859163620
5.626549527495073200,0.438302910489593078,-0.022350072148129944
5.656007901984576591,0.438149369258573007,-0.022179786630964732
5.685466276474078207,0.437997581220783139,-0.022011631719613779
5.714924650963581598,0.437847519906383986,-0.021845570650793185
5.744383025453084990,0.437699159320077635,-0.021681567464230549
5.773841399942587493,0.437552473931990260,-0.021519586981572844
5.803299774432090885,0.437407438668704074,-0.021359594785937706
5.832758148921594277,0.437264028904448598,-0.021201557202086215
5.862216523411096780,0.437122220452441146,-0.021045441277195452
5.891674897900600172,0.436981989556381734,-0.020891214762210324
5.921133272390103564,0.436843312882100432,-0.020738846093755217
5.950591646879606067,0.436706167509356091,-0.020588304376585941
5.980050021369108570,0.436570530923784172,-0.020439559366563970
6.009508395858611962,0.436436381008995289,-0.020292581454135327
6.038966770348114466,0.436303696038819744,-0.020147341648297012
6.068425144837617857,0.436172454669698506,-0.020003811561034854
6.097883519327121249,0.436042635933219902,-0.019861963392216880
6.127341893816623752,0.435914219228797362,-0.019721769914927127
6.156800268306127144,0.435787184316489939,-0.019583204461225374
6.186258642795630536,0.435661511309961447,-0.019446240908318715
6.215717017285133039,0.435537180669576474,-0.019310853665131394
6.245175391774636431,0.435414173195632859,-0.019177017659260005
6.274633766264139823,0.435292470021726718,-0.019044708324301350
6.304092140753641438,0.435172052608250870,-0.018913901587540985
6.333550515243144829,0.435052902736020486,-0.018784573857990667
6.363008889732648221,0.434935002500027534,-0.018656702014763663
6.392467264222150725,0.434818334303319454,-0.018530263395776816
6.421925638711654116,0.434702880851003670,-0.018405235786769079
6.451384013201157508,0.434588625144370466,-0.018281597410626533
6.480842387690660011,0.434475550475135419,-0.018159326917003896
6.510300762180163403,0.434363640419801189,-0.018038403372233402
6.539759136669666795,0.434252878834131273,-0.017918806249511893
6.569217511159168410,0.434143249847737944,-0.017800515419357395
6.598675885648671802,0.434034737858781772,-0.017683511140326801
6.628134260138175193,0.433927327528777329,-0.017567774049986426
6.657592634627677697,0.433821003777508873,-0.017453285156127873
6.687051009117181088,0.433715751778047665,-0.017340025828221167
6.716509383606684480,0.433611556951872812,-0.017227977789098306
6.745967758096186984,0.433508404964094984,-0.017117123106859949
6.775426132585690375,0.433406281718773767,-0.017007444186998323
6.804884507075192879,0.433305173354336881,-0.016898923764730074
6.834342881564696270,0.433205066239091274,-0.016791544897532387
6.863801256054198774,0.433105946966827637,-0.016685290957876419
6.893259630543701277,0.433007802352515347,-0.016580145626151978
6.922718005033204669,0.432910619428088561,-0.016476092883777865
6.952176379522708061,0.432814385438317073,-0.016373117006492199
6.981634754012210564,0.432719087836763272,-0.016271202557817398
7.011093128501713956,0.432624714281825196,-0.016170334382694683
7.040551502991217347,0.432531252632857854,-0.016070497601283023
7.070009877480719851,0.432438690946377102,-0.015971677602917733
7.099468251970223243,0.432347017472343054,-0.015873860040224001
7.128926626459726634,0.432256220650516998,-0.015777030823380864
7.158385000949228250,0.432166289106897583,-0.015681176114531202
7.187843375438731641,0.432077211650227888,-0.015586282322333462
7.217301749928235033,0.431988977268576158,-0.015492336096651198
7.246760124417737536,0.431901575125985704,-0.015399324323376250
7.276218498907240928,0.431814994559197418,-0.015307234119381787
7.305676873396744320,0.431729225074434175,-0.015216052827601590
7.335135247886246823,0.431644256344257515,-0.015125768012231828
7.364593622375750215,0.431560078204485109,-0.015036367454051949
7.394051996865253606,0.431476680651172839,-0.014947839145861308
7.423510371354755222,0.431394053837659219,-0.014860171288028197
7.452968745844258613,0.431312188071670655,-0.014773352284148104
7.482427120333762005,0.431231073812484544,-0.014687370736808363
7.511885494823264509,0.431150701668152392,-0.014602215443455890
7.541343869312767900,0.431071062392779591,-0.014517875392365350
7.570802243802271292,0.430992146883858174,-0.014434339758704971
7.600260618291773795,0.430913946179658836,-0.014351597900697160
7.629718992781277187,0.430836451456670544,-0.014269639355871515
7.659177367270780579,0.430759654027096983,-0.014188453837407473
7.688635741760283082,0.430683545336401241,-0.014108031230564356
7.718094116249786474,0.430608116960901233,-0.014028361589196266
7.747552490739288977,0.430533360605413418,-0.013949435132349593
7.777010865228791481,0.430459268100945369,-0.013871242240940952
7.806469239718294872,0.430385831402433305,-0.013793773454513249
7.835927614207798264,0.430313042586526140,-0.013717019468067918
7.865385988697300768,0.430240893849414940,-0.013640971128971138
7.894844363186804159,0.430169377504705019,-0.013565619433932198
7.924302737676307551,0.430098485981330381,-0.013490955526052019
7.953761112165810054,0.430028211821511519,-0.013416970691939922
7.983219486655313446,0.429958547678752856,-0.013343656358896963
8.012677861144815950,0.429889486315880476,-0.013271004092163955
8.042136235634318453,0.429821020603119941,-0.013199005592232554
8.071594610123822733,0.429753143516210079,-0.013127652692217738
8.101052984613325236,0.429685848134556847,-0.013056937355290057
8.130511359102827740,0.429619127639423559,-0.012986851672166138
8.159969733592332020,0.429552975312153640,-0.012917387858655895
8.189428108081834523,0.429487384532433680,-0.012848538253264980
8.218886482571337027,0.429422348776586860,-0.012780295314851137
8.248344857060839530,0.429357861615901171,-0.012712651620332886
8.277803231550343810,0.429293916714991064,-0.012645599862449475
8.307261606039846313,0.429230507830190899,-0.012579132847570460
8.336719980529348817,0.429167628807979040,-0.012513243493553969
8.366178355018851320,0.429105273583434976,-0.012447924827652196
8.395636729508355600,0.429043436178723425,-0.012383169984463035
8.425095103997858104,0.428982110701610075,-0.012318972203926656
8.454553478487360607,0.428921291344006472,-0.012255324829365895
8.484011852976863111,0.428860972380542160,-0.012192221305569408
8.513470227466367390,0.428801148167163637,-0.012129655176916412
8.542928601955869894,0.428741813139762562,-0.012067620085542165
8.572386976445372397,0.428682961812828778,-0.012006109769542930
8.601845350934876677,0.428624588778130144,-0.011945118061219668
8.631303725424379181,0.428566688703416687,-0.011884638885359417
8.660762099913881684,0.428509256331150779,-0.011824666257553362
8.690220474403385964,0.428452286477261024,-0.011765194282550821
8.719678848892888468,0.428395774029919685,-0.011706217152648265
8.749137223382390971,0.428339713948343637,-0.011647729146112324
8.778595597871893474,0.428284101261618533,-0.011589724625636250
8.808053972361395978,0.428228931067544838,-0.011532198036828810
8.837512346850900258,0.428174198531504790,-0.011475143906734911
8.866970721340402761,0.428119898885353400,-0.011418556842387175
8.896429095829905265,0.428066027426327711,-0.011362431529387748
8.925887470319409545,0.428012579515976654,-0.011306762730519565
8.955345844808912048,0.427959550579113612,-0.011251545284386448
8.984804219298414552,0.427906936102786128,-0.011196774104081278
9.014262593787918831,0.427854731635265106,-0.011142444175881637
9.043720968277421335,0.427802932785054157,-0.011088550557972221
9.073179342766923838,0.427751535219915824,-0.011035088379193437
9.102637717256426342,0.427700534665916898,-0.010982052837815507
9.132096091745930622,0.427649926906491673,-0.010929439200337607
