# omega (a.u.), Re alpha(w), Im alpha(w)
0.000000000000000000,0.000000000000000000,0.000000000000000000
0.029458374489503000,0.008771583425363863,-0.148045638974259236
0.058916748979005999,0.034889229957337307,-0.293999203837429723
0.088375123468509009,0.077771120900962304,-0.435856456239524737
0.117833497958011998,0.136478411019636564,-0.571781470273612480
0.147291872447515015,0.209758845338170491,-0.700173410420653175
0.176750246937018018,0.296102841081549328,-0.819715100960632159
0.206208621426520994,0.393807791133938989,-0.929401158290160012
0.235666995916023997,0.501046043912653283,-1.028545777197053424
0.265125370405526972,0.615932181156817027,-1.116772253261070880
0.294583744895030031,0.736585774983863129,-1.193987738812047450
0.324042119384532978,0.861186640656948499,-1.260347471417117893
0.353500493874036037,0.988020576196935174,-1.316212820719669274
0.382958868363538985,1.115514565034431360,-1.362107106189741179
0.412417242853041988,1.242261308485623328,-1.398672423668618325
0.441875617342544991,1.367033680269991613,-1.426629859756378016
0.471333991832047994,1.488790220817464371,-1.446744615246451593
0.500792366321550997,1.606673111488389649,-1.459796801111529874
0.530250740811053944,1.720000208247756346,-1.466558065971786284
0.559709115300557003,1.828252705235367870,-1.467773777634107990
0.589167489790060062,1.931059881296014247,-1.464150202125659384
0.618625864279563009,2.028182196346652866,-1.456345975900989353
0.648084238769065957,2.119493783846584378,-1.444967119296587610
0.677542613258568904,2.204965157710700119,-1.430564861269173482
0.707000987748072074,2.284646736077889706,-1.413635610648276364
0.736459362237575021,2.358653592544877498,-1.394622496894494912
0.765917736727077969,2.427151683979027030,-1.373917998747933300
0.795376111216581028,2.490345674520670460,-1.351867272269020370
0.824834485706083975,2.548468376487597276,-1.328771874716226487
0.854292860195587034,2.601771757345867631,-1.304893654528676450
0.883751234685089981,2.650519413537412827,-1.280458639470269278
0.913209609174593040,2.694980382340757430,-1.255660805110702105
0.942667983664095988,2.735424147875895162,-1.230665645358027360
0.972126358153598935,2.772116693097977702,-1.205613497144234492
1.001584732643101994,2.805317452985297777,-1.180622594110895207
1.031043107132604941,2.835277032545250986,-1.155791840688678240
1.060501481622107889,2.862235564734100457,-1.131203309605365304
1.089959856111611058,2.886421596408070833,-1.106924473701143441
1.119418230601114006,2.908051403909810873,-1.083010187898355348
1.148876605090616954,2.927328653098817401,-1.059504440010477166
1.178334979580120123,2.944444331074246968,-1.036441890371455177
1.207793354069622849,2.959576888229509706,-1.013849220478885149
1.237251728559126018,2.972892539481092999,-0.991746310321579450
1.266710103048629188,2.984545682491766883,-0.970147263064645604
1.296168477538131913,2.994679398491388422,-0.949061294484937035
1.325626852027635083,3.003426007960650068,-0.928493503124690589
1.355085226517137809,3.010907659082028065,-0.908445535658092163
1.384543601006640978,3.017236931587081283,-0.888916160510452746
1.414001975496144148,3.022517442551069689,-0.869901761375674099
1.443460349985646873,3.026844443912283911,-0.851396760971017796
1.472918724475150043,3.030305404124301383,-0.833393984163218859
1.502377098964652991,3.032980568475806660,-0.815884968502612495
1.531835473454155938,3.034943494315244905,-0.798860229212334905
1.561293847943659108,3.036261558767414215,-0.782309484794240118
1.590752222433162055,3.036996437587198727,-0.766221848625980084
1.620210596922665003,3.037204554614501006,-0.750585991227473714
1.649668971412167950,3.036937501918209215,-0.735390277261853242
1.679127345901671120,3.036242431183142187,-0.720622880797923138
1.708585720391174068,3.035162417233299159,-0.706271881890397468
1.738044094880677015,3.033736794823206573,-0.692325347123291190
1.767502469370179963,3.032001469987985587,-0.678771396403961780
1.796960843859682910,3.029989207339014889,-0.665598257984119313
1.826419218349186080,3.027729894740356364,-0.652794313413945337
1.855877592838688805,3.025250786812345272,-0.640348133901176397
1.885335967328191975,3.022576728692483616,-0.628248509344029205
1.914794341817695145,3.019730361447276579,-0.616484471131191980
1.944252716307197870,3.016732310477601153,-0.605045309650127927
1.973711090796701040,3.013601358199457625,-0.593920587313620074
2.003169465286203987,3.010354602214882824,-0.583100147800999946
2.032627839775706935,3.007007600117294732,-0.572574122112506800
2.062086214265209883,3.003574502003745206,-0.562332931950648152
2.091544588754712830,3.000068171694949992,-0.552367290869420602
2.121002963244215778,2.996500297593862605,-0.542668203569290353
2.150461337733719169,2.992881494045722679,-0.533226963661522446
2.179919712223222117,2.989221393997529841,-0.524035150178627118
2.209378086712725064,2.985528733693235903,-0.515084623067335268
2.238836461202228012,2.981811430082690340,-0.506367517865745631
2.268294835691730960,2.978076651567787003,-0.497876239736333215
2.297753210181233907,2.974330882658210218,-0.489603457000719500
2.327211584670737299,2.970579983061735874,-0.481542094299903300
2.356669959160240246,2.966829241689991736,-0.473685325484567987
2.386128333649743194,2.963083426019878175,-0.466026566323642477
2.415586708139245697,2.959346827213312991,-0.458559467105200291
2.445045082628749089,2.955623301363326849,-0.451277905191654505
2.474503457118252037,2.951916307202802958,-0.444175977580815562
2.503961831607754984,2.948228940582943824,-0.437247993515464062
2.533420206097258376,2.944563966001831012,-0.430488467176460443
2.562878580586760879,2.940923845438959017,-0.423892110487891660
2.592336955076263827,2.937310764729225365,-0.417453826057172184
2.621795329565767219,2.933726657689407880,-0.411168700268274290
2.651253704055270166,2.930173228191452317,-0.405031996542215056
2.680712078544773114,2.926651970359852140,-0.399039148775491348
2.710170453034275617,2.923164187054815066,-0.393185754964254286
2.739628827523779009,2.919711006788724639,-0.387467571019552981
2.769087202013281956,2.916293399210470927,-0.381880504776917096
2.798545576502784904,2.912912189280387754,-0.376420610201811001
2.828003950992288296,2.909568070247843696,-0.371084081791062725
2.857462325481790799,2.906261615533659803,-0.365867249169160136
2.886920699971293747,2.902993289610671379,-0.360766571877333631
2.916379074460797138,2.899763457967557745,-0.355778634352542256
2.945837448950300086,2.896572396233702218,-0.350900141092829132
2.975295823439803033,2.893420298536044655,-0.346127912004997429
3.004754197929305981,2.890307285152778238,-0.341458877930166049
3.034212572418808929,2.887233409523108474,-0.336890076342446554
3.063670946908311876,2.884198664667190659,-0.332418647215767360
3.093129321397815268,2.881202989065702713,-0.328041829053712042
3.122587695887318215,2.878246272044273191,-0.323756955077145359
3.152046070376820719,2.875328358704088316,-0.319561449564347455
3.181504444866324111,2.872449054436513105,-0.315452824338371574
3.210962819355827058,2.869608129056276269,-0.311428675396370036
3.240421193845330006,2.866805320584921546,-0.307486679675676888
3.269879568334833397,2.864040338713434775,-0.303624591951524692
3.299337942824335901,2.861312867970621010,-0.299840241861357659
3.328796317313838848,2.858622570621480286,-0.296131531050817520
3.358254691803342240,2.855969089317847764,-0.292496430436599730
3.387713066292845188,2.853352049521677092,-0.288932977581505435
3.417171440782348135,2.850771061719635568,-0.285439274177147928
3.446629815271850639,2.848225723446148105,-0.282013483629922346
3.476088189761354030,2.845715621130576967,-0.278653828745978216
3.505546564250856978,2.843240331782940000,-0.275358589511090601
3.535004938740359925,2.840799424531374573,-0.272126100961461337
3.564463313229863317,2.838392462023467733,-0.268954751141635251
3.593921687719365821,2.836019001702568598,-0.265842979145850922
3.623380062208868768,2.833678596969297026,-0.262789273239292964
3.652838436698372160,2.831370798237622832,-0.259792169055848954
3.682296811187875107,2.829095153894124248,-0.256850247869108539
3.711755185677377611,2.826851211168324607,-0.253962134933475248
3.741213560166881003,2.824638516921393006,-0.251126497892391165
3.770671934656383950,2.822456618359859171,-0.248342045250798338
3.800130309145886898,2.820305063680496271,-0.245607524909079167
3.829588683635390289,2.818183402652006730,-0.242921722755841091
3.859047058124893237,2.816091187138699770,-0.240283461317016722
3.888505432614395740,2.814027971570919995,-0.237691598458863812
3.917963807103899132,2.811993313366626168,-0.235145026142551922
3.947422181593402080,2.809986773308140950,-0.232642669228126014
3.976880556082905027,2.808007915877799743,-0.230183484325728965
4.006338930572407975,2.806056309555891026,-0.227766458692064772
4.035797305061911366,2.804131527084055442,-0.225390609170166317
4.065255679551413870,2.802233145697013317,-0.223054981170623001
4.094714054040917262,2.800360747325293165,-0.220758647692500670
4.124172428530419765,2.798513918771415199,-0.218500708382268372
4.153630803019923157,2.796692251861770728,-0.216280288629118550
4.183089177509425660,2.794895343576282443,-0.214096538695140892
4.212547551998929052,2.793122796157761378,-0.211948632878878440
4.242005926488431555,2.791374217202704511,-0.209835768710859100
4.271464300977934947,2.789649219735163221,-0.207757166179758840
4.300922675467438339,2.787947422265177888,-0.205712066987914610
4.330381049956940842,2.786268448833136180,-0.203699733834958596
4.359839424446444234,2.784611929041329592,-0.201719449728402694
4.389297798935946737,2.782977498073873956,-0.199770517320054020
4.418756173425450129,2.781364796706047748,-0.197852258267190356
4.448214547914952632,2.779773471304053167,-0.195964012617474731
4.477672922404456024,2.778203173816098381,-0.194105138216629947
4.507131296893959416,2.776653561755626498,-0.192275010137940516
4.536589671383461919,2.775124298177474191,-0.190473020132689491
4.566048045872965311,2.773615051647654983,-0.188698576100675391
4.595506420362467814,2.772125496207415551,-0.186951101579995616
4.624964794851971206,2.770655311332172133,-0.185230035255314229
4.654423169341474598,2.769204181885863481,-0.183534830483870565
4.683881543830977101,2.767771798071231526,-0.181864954838513670
4.713339918320480493,2.766357855376485819,-0.180219889667081384
4.742798292809982996,2.764962054518785184,-0.178599129667472489
4.772256667299486388,2.763584101384914060,-0.177002182477786069
4.801715041788989780,2.762223706969534565,-0.175428568280932728
4.831173416278491395,2.760880587311305590,-0.173877819423145868
4.860631790767994787,2.759554463427201565,-0.172349480045845882
4.890090165257498178,2.758245061245297336,-0.170843105730334982
4.919548539747000682,2.756952111536253192,-0.169358263154821526
4.949006914236504073,2.755675349843760280,-0.167894529763293582
4.978465288726007465,2.754414516414128933,-0.166451493445784471
5.007923663215509968,2.753169356125227729,-0.165028752229589043
5.037382037705013360,2.751939618414946942,-0.163625913981010868
5.066840412194516752,2.750725057209334246,-0.162242596117236793
5.096298786684018367,2.749525430850562557,-0.160878425327951630
5.125757161173521759,2.748340502024853027,-0.159533037306324954
5.155215535663025150,2.747170037690470856,-0.158206076489013803
5.184673910152527654,2.746013809005912076,-0.156897195804841322
5.214132284642031046,2.744871591258363441,-0.155606056431826345
5.243590659131534437,2.743743163792539352,-0.154332327562251626
5.273049033621036941,2.742628309939967757,-0.153075686175470543
5.302507408110540332,2.741526816948786749,-0.151835816818164909
5.331965782600042836,2.740438475914145133,-0.150612411391780554
5.361424157089546227,2.739363081709218051,-0.149405168946873113
5.390882531579049619,2.738300432916934035,-0.148213795484114036
5.420340906068551234,2.737250331762432598,-0.147038003761711000
5.449799280558054626,2.736212584046289642,-0.145877513109010232
5.479257655047558018,2.735186999078563108,-0.144732049246057842
5.508716029537060521,2.734173389613670402,-0.143601344108903267
5.538174404026563913,2.733171571786131349,-0.142485135680438996
5.567632778516067305,2.732181365047205990,-0.141383167826579753
5.597091153005569808,2.731202592102423665,-0.140295190137588371
5.626549527495073200,2.730235078850047792,-0.139220957774367077
5.656007901984576591,2.729278654320462127,-0.138160231319538696
5.685466276474078207,2.728333150616505609,-0.137112776633147360
5.714924650963581598,2.727398402854749104,-0.136078364712818395
5.744383025453084990,2.726474249107744274,-0.135056771558220490
5.773841399942587493,2.725560530347209465,-0.134047778039680682
5.803299774432090885,2.724657090388183267,-0.133051169770807137
5.832758148921594277,2.723763775834139977,-0.132066736984983113
5.862216523411096780,2.722880436023058959,-0.131094274415597484
5.891674897900600172,2.722006922974439469,-0.130133581179883356
5.921133272390103564,2.721143091337277387,-0.129184460666243284
5.950591646879606067,2.720288798338970970,-0.128246720424941341
5.980050021369108570,2.719443903735168977,-0.127320172062047182
6.009508395858611962,2.718608269760545593,-0.126404631136524642
6.038966770348114466,2.717781761080499070,-0.125499917060357097
6.068425144837617857,2.716964244743746981,-0.124605853001608743
6.097883519327121249,2.716155590135840736,-0.123722265790323999
6.127341893816623752,2.715355668933553623,-0.122848985827170437
6.156800268306127144,2.714564355060158807,-0.121985846994734415
6.186258642795630536,2.713781524641566634,-0.121132686571382500
6.215717017285133039,2.713007055963327474,-0.120289345147603338
6.245175391774636431,2.712240829428470335,-0.119455666544750663
6.274633766264139823,2.711482727516178137,-0.118631497736106567
6.304092140753641438,2.710732634741277458,-0.117816688770192718
6.333550515243144829,2.709990437614545833,-0.117011092696254010
6.363008889732648221,2.709256024603796220,-0.116214565491847360
6.392467264222150725,2.708529286095757271,-0.115426965992465436
6.421925638711654116,2.707810114358716547,-0.114648155823132147
6.451384013201157508,2.707098403505916462,-0.113877999331907009
6.480842387690660011,2.706394049459694084,-0.113116363525236352
6.510300762180163403,2.705696949916347460,-0.112363118005094798
6.539759136669666795,2.705007004311725805,-0.111618134907859448
6.569217511159168410,2.704324113787510253,-0.110881288844863132
6.598675885648671802,2.703648181158193164,-0.110152456844573421
6.628134260138175193,2.702979110878735547,-0.109431518296348118
6.657592634627677697,2.702316809012876853,-0.108718354895716782
6.687051009117181088,2.701661183202117122,-0.108012850591142393
6.716509383606684480,2.701012142635311530,-0.107314891532217002
6.745967758096186984,2.700369598018918627,-0.106624366019247310
6.775426132585690375,2.699733461547840108,-0.105941164454187858
6.804884507075192879,2.699103646876880092,-0.105265179292881414
6.834342881564696270,2.698480069092784372,-0.104596304998565592
6.863801256054198774,2.697862644686858768,-0.103934437996608647
6.893259630543701277,2.697251291528158124,-0.103279476630436712
6.922718005033204669,2.696645928837231754,-0.102631321118617239
6.952176379522708061,2.696046477160402244,-0.101989873513063697
6.981634754012210564,2.695452858344589142,-0.101355037658328526
7.011093128501713956,2.694864995512650019,-0.100726719151951277
7.040551502991217347,2.694282813039224234,-0.100104825305832090
7.070009877480719851,2.693706236527094067,-0.099489265108598970
7.099468251970223243,2.693135192784015253,-0.098879949188940303
7.128926626459726634,2.692569609800045782,-0.098276789779874502
7.158385000949228250,2.692009416725329007,-0.097679700683929505
7.187843375438731641,2.691454543848343040,-0.097088597239204516
7.217301749928235033,2.690904922574605340,-0.096503396286291024
7.246760124417737536,2.690360485405798752,-0.095924016136025414
7.276218498907240928,2.689821165919353607,-0.095350376538051299
7.305676873396744320,2.689286898748429522,-0.094782398650167576
7.335135247886246823,2.688757619562318624,-0.094220005008440008
7.364593622375750215,2.688233265047258680,-0.093663119498054490
7.394051996865253606,2.687713772887626362,-0.093111667324891081
7.423510371354755222,2.687199081747528417,-0.092565574987798799
7.452968745844258613,2.686689131252768536,-0.092024770251550356
7.482427120333762005,2.686183861973178821,-0.091489182120459575
7.511885494823264509,2.685683215405322954,-0.090958740812641242
7.541343869312767900,2.685187133955544869,-0.090433377734896250
7.570802243802271292,2.684695560923366919,-0.089913025458205273
7.600260618291773795,2.684208440485225111,-0.089397617693812825
7.629718992781277187,2.683725717678543621,-0.088887089269886713
7.659177367270780579,2.683247338386119729,-0.088381376108736198
7.688635741760283082,2.682773249320841824,-0.087880415204574333
7.718094116249786474,2.682303398010703610,-0.087384144601808794
7.747552490739288977,2.681837732784133177,-0.086892503373847477
7.777010865228791481,2.681376202755613392,-0.086405431602404922
7.806469239718294872,2.680918757811592723,-0.085922870357295719
7.835927614207798264,2.680465348596682507,-0.085444761676701841
7.865385988697300768,2.680015926500134871,-0.084971048547901495
7.894844363186804159,2.679570443642583122,-0.084501674888446898
7.924302737676307551,2.679128852863058796,-0.084036585527778943
7.953761112165810054,2.678691107706268948,-0.083575726189267785
7.983219486655313446,2.678257162410114578,-0.083119043472667103
8.012677861144815950,2.677826971893477292,-0.082666484836971824
8.042136235634318453,2.677400491744237776,-0.082217998583668808
8.071594610123822733,2.676977678207534073,-0.081773533840369381
8.101052984613325236,2.676558488174257011,-0.081333040544814994
8.130511359102827740,2.676142879169771671,-0.080896469429244847
8.159969733592332020,2.675730809342861782,-0.080463772005117493
8.189428108081834523,2.675322237454893948,-0.080034900548176260
8.218886482571337027,2.674917122869196806,-0.079609808083850223
8.248344857060839530,2.674515425540646252,-0.079188448372981723
8.277803231550343810,2.674117106005456712,-0.078770775897872264
8.307261606039846313,2.673722125371175373,-0.078356745848638901
8.336719980529348817,2.673330445306870029,-0.077946314109872530
8.366178355018851320,2.672942028033505668,-0.077539437247591395
8.395636729508355600,2.672556836314516904,-0.077136072496481259
8.425095103997858104,2.672174833446557596,-0.076736177747416159
8.454553478487360607,2.671795983250431217,-0.076339711535251639
8.484011852976863111,2.671420250062197521,-0.075946633026884466
8.513470227466367390,2.671047598724454186,-0.075556902009571728
8.542928601955869894,2.670677994577783210,-0.075170478879502955
8.572386976445372397,2.670311403452362509,-0.074787324630619059
8.601845350934876677,2.669947791659742720,-0.074407400843671936
8.631303725424379181,2.669587125984778986,-0.074030669675518954
8.660762099913881684,2.669229373677712402,-0.073657093848646146
8.690220474403385964,2.668874502446415331,-0.073286636640914990
8.719678848892888468,2.668522480448772161,-0.072919261875527275
8.749137223382390971,2.668173276285215945,-0.072554933911202185
8.778595597871893474,2.667826858991393824,-0.072193617632561102
8.808053972361395978,2.667483198030987879,-0.071835278440714953
8.837512346850900258,2.667142263288657222,-0.071479882244048942
8.866970721340402761,2.666804025063120864,-0.071127395449200256
8.896429095829905265,2.666468454060370696,-0.070777784952223852
8.925887470319409545,2.666135521387008822,-0.070431018129942013
8.955345844808912048,2.665805198543714560,-0.070087062831473299
8.984804219298414552,2.665477457418828688,-0.069745887369936532
9.014262593787918831,2.665152270282062918,-0.069407460514325711
9.043720968277421335,2.664829609778320396,-0.069071751481551855
9.073179342766923838,2.664509448921638324,-0.068738729928647796
9.102637717256426342,2.664191761089238053,-0.068408365945132235
9.132096091745930622,2.663876520015683536,-0.068080630045528917
