# omega (a.u.), Re alpha(w), Im alpha(w)
0.010000000000000000,0.000005931199127183,-0.000870766352437081
0.060000000000000005,0.000213263709592561,-0.005218152662181177
0.110000000000000001,0.000714695982845618,-0.009538078227213217
0.160000000000000031,0.001505069827188055,-0.013808325805517186
0.210000000000000020,0.002576381191104859,-0.018007811390058918
0.260000000000000009,0.003918022614862409,-0.022117006656269401
0.310000000000000053,0.005517090724387600,-0.026118272157502644
0.360000000000000042,0.007358739413800661,-0.029996091570781879
0.410000000000000031,0.009426558482979524,-0.033737207035258281
0.460000000000000020,0.011702958551258516,-0.037330663545131530
0.510000000000000009,0.014169545612937645,-0.040767775687765732
0.560000000000000053,0.016807472062140130,-0.044042032659209362
0.610000000000000098,0.019597754819211402,-0.047148957846436107
0.660000000000000031,0.022521554857370788,-0.050085937998456453
0.710000000000000075,0.025560415621302016,-0.052852034813105180
0.760000000000000009,0.028696460368866548,-0.055447789227820420
0.810000000000000053,0.031912550307734482,-0.057875026230655754
0.860000000000000098,0.035192406592230101,-0.060136665835789159
0.910000000000000031,0.038520699900373226,-0.062236544089469208
0.960000000000000075,0.041883111556623082,-0.064179246588351446
1.010000000000000009,0.045266370127956021,-0.065969955953343332
1.060000000000000053,0.048658267206641570,-0.067614313940961110
1.110000000000000098,0.052047655784614032,-0.069118298324493579
1.160000000000000142,0.055424434279088913,-0.070488114283171324
1.210000000000000187,0.058779518923251978,-0.071730099756483340
1.260000000000000009,0.062104806909435005,-0.072850644022408567
1.310000000000000053,0.065393132373956081,-0.073856118621897476
1.360000000000000098,0.068638217044568184,-0.074752819663505957
1.410000000000000142,0.071834617131344480,-0.075546920492068889
1.460000000000000187,0.074977667826437111,-0.076244433686716948
1.510000000000000009,0.078063426583918002,-0.076851181360810247
1.560000000000000053,0.081088616174782233,-0.077372772764671763
1.610000000000000098,0.084050568351878227,-0.077814588236968227
1.660000000000000142,0.086947168813464551,-0.078181768608147503
1.710000000000000187,0.089776804021323861,-0.078479209225778765
1.760000000000000009,0.092538310309338442,-0.078711557843612362
1.810000000000000053,0.095230925610813352,-0.078883215690773445
1.860000000000000098,0.097854244037367366,-0.078998341112284265
1.910000000000000142,0.100408173458599467,-0.079060855245106004
1.960000000000000187,0.102892896159591837,-0.079074449263588725
2.009999999999999787,0.105308832592110616,-0.079042592793523575
2.060000000000000053,0.107656608184467401,-0.078968543154182808
2.109999999999999876,0.109937023133648532,-0.078855355142402217
2.159999999999999698,0.112151025070671720,-0.078705891121756535
2.209999999999999964,0.114299684465279897,-0.078522831223254833
2.259999999999999787,0.116384172618130444,-0.078308683501940549
2.310000000000000053,0.118405742076657258,-0.078065793926636318
2.359999999999999876,0.120365709303898241,-0.077796356108204082
2.410000000000000142,0.122265439426959693,-0.077502420695523641
2.459999999999999964,0.124106332892656823,-0.077185904388362661
2.509999999999999787,0.125889813861533223,-0.076848598532858373
2.560000000000000053,0.127617320177293353,-0.076492177278875473
2.609999999999999876,0.129290294756141705,-0.076118205289443533
2.660000000000000142,0.130910178249134562,-0.075728145001179289
2.709999999999999964,0.132478402840022380,-0.075323363441397548
2.759999999999999787,0.133996387050858229,-0.074905138612806690
2.810000000000000053,0.135465531437600067,-0.074474665460542044
2.859999999999999876,0.136887215067826307,-0.074033061439036082
2.910000000000000142,0.138262792682345842,-0.073581371698071982
2.959999999999999964,0.139593592451784598,-0.073120573908477857
3.009999999999999787,0.140880914248081357,-0.072651582748451057
3.060000000000000053,0.142126028359159495,-0.072175254071574088
3.109999999999999876,0.143330174582818826,-0.071692388777302732
3.160000000000000142,0.144494561643094377,-0.071203736404160098
3.209999999999999964,0.145620366878950414,-0.070709998465128862
3.259999999999999787,0.146708736161226982,-0.070211831543855338
3.310000000000000053,0.147760783999250356,-0.069709850169312776
3.359999999999999876,0.148777593803480379,-0.069204629485552088
3.410000000000000142,0.149760218275027529,-0.068696707732128173
3.459999999999999964,0.150709679896859489,-0.068186588549751057
3.509999999999999787,0.151626971505068431,-0.067674743124689934
3.560000000000000053,0.152513056921716184,-0.067161612184469741
3.609999999999999876,0.153368871633550924,-0.066647607856451491
3.660000000000000142,0.154195323503331316,-0.066133115399986606
3.709999999999999964,0.154993293502627555,-0.065618494821985271
3.759999999999999787,0.155763636456831361,-0.065104082384941850
3.810000000000000053,0.156507181794722311,-0.064590192015717640
3.859999999999999876,0.157224734296332519,-0.064077116622690028
3.910000000000000142,0.157917074834053622,-0.063565129328240114
3.959999999999999964,0.158584961102956168,-0.063054484622961121
4.009999999999999787,0.159229128337168513,-0.062545419447430445
4.059999999999999609,0.159850290009903945,-0.062038154206891030
4.110000000000000320,0.160449138515348033,-0.061532893723735098
4.160000000000000142,0.161026345831144641,-0.061029828132268038
4.209999999999999964,0.161582564160650449,-0.060529133719852767
4.259999999999999787,0.162118426554488160,-0.060030973718190689
4.309999999999999609,0.162634547511220112,-0.059535499048181797
4.360000000000000320,0.163131523557200786,-0.059042849021522313
4.410000000000000142,0.163609933805854840,-0.058553152001938807
4.459999999999999964,0.164070340496773021,-0.058066526028723135
4.509999999999999787,0.164513289515133859,-0.057583079405019298
4.559999999999999609,0.164939310892039614,-0.057102911253119025
4.610000000000000320,0.165348919286417123,-0.056626112038846918
4.660000000000000142,0.165742614449172182,-0.056152764066956629
4.709999999999999964,0.166120881670310694,-0.055682941949313371
4.759999999999999787,0.166484192209747361,-0.055216713047506485
4.810000000000000497,0.166833003712524769,-0.054754137891415026
4.860000000000000320,0.167167760609153560,-0.054295270575140241
4.910000000000000142,0.167488894501769625,-0.053840159131617965
4.959999999999999964,0.167796824536783296,-0.053388845887133982
5.009999999999999787,0.168091957764669481,-0.052941367796880828
5.060000000000000497,0.168374689487521406,-0.052497756762618898
5.110000000000000320,0.168645403594961302,-0.052058039933434691
5.160000000000000142,0.168904472888970092,-0.051622239990524871
5.209999999999999964,0.169152259398169524,-0.051190375416875385
5.259999999999999787,0.169389114682058195,-0.050762460752651728
5.310000000000000497,0.169615380125674564,-0.050338506837065117
5.360000000000000320,0.169831387225129748,-0.049918521037434056
5.410000000000000142,0.170037457864425867,-0.049502507466117729
5.459999999999999964,0.170233904583949075,-0.049090467185958019
5.509999999999999787,0.170421030841000104,-0.048682398404830372
5.560000000000000497,0.170599131262702097,-0.048278296659869560
5.610000000000000320,0.170768491891602314,-0.047878154991904752
5.660000000000000142,0.170929390424263444,-0.047481964110608246
5.709999999999999964,0.171082096443120335,-0.047089712550835321
5.759999999999999787,0.171226871641859707,-0.046701386820606212
5.810000000000000497,0.171363970044562913,-0.046316971541157138
5.860000000000000320,0.171493638218837230,-0.045936449579465161
5.910000000000000142,0.171616115483145371,-0.045559802173629219
5.959999999999999964,0.171731634108529874,-0.045187009051471272
6.009999999999999787,0.171840419514917908,-0.044818048542701133
6.060000000000000497,0.171942690462178915,-0.044452897684971716
6.110000000000000320,0.172038659236099289,-0.044091532324134743
6.160000000000000142,0.172128531829426390,-0.043733927208990615
6.209999999999999964,0.172212508118129326,-0.043380056080811802
6.259999999999999787,0.172290782033011597,-0.043029891757904878
6.310000000000000497,0.172363541726808012,-0.042683406215462801
6.360000000000000320,0.172430969736888429,-0.042340570660946736
6.410000000000000142,0.172493243143687108,-0.042001355605224645
6.459999999999999964,0.172550533724970312,-0.041665730929682440
6.509999999999999787,0.172603008106049394,-0.041333665949513106
6.560000000000000497,0.172650827906044385,-0.041005129473378581
6.610000000000000320,0.172694149880295217,-0.040680089859629891
6.660000000000000142,0.172733126059018610,-0.040358515069261656
6.709999999999999964,0.172767903882301066,-0.040040372715768484
6.759999999999999787,0.172798626331519378,-0.039725630112062565
6.810000000000000497,0.172825432057272410,-0.039414254314603402
6.860000000000000320,0.172848455503910897,-0.039106212164884226
6.910000000000000142,0.172867827030744742,-0.038801470328411164
6.959999999999999964,0.172883673030007678,-0.038499995331305735
7.009999999999999787,0.172896116041657139,-0.038201753594653824
7.060000000000000497,0.172905274865083419,-0.037906711466718979
7.110000000000000320,0.172911264667802739,-0.037614835253131453
7.160000000000000142,0.172914197091205230,-0.037326091245159301
7.209999999999999964,0.172914180353428371,-0.037040445746162248
7.259999999999999787,0.172911319349424802,-0.036757865096324317
7.310000000000000497,0.172905715748290778,-0.036478315695756450
7.360000000000000320,0.172897468087922668,-0.036201764026055350
7.410000000000000142,0.172886671867064190,-0.035928176670401192
7.459999999999999964,0.172873419634809039,-0.035657520332272215
7.509999999999999787,0.172857801077620610,-0.035389761852850442
7.560000000000000497,0.172839903103928605,-0.035124868227189153
7.610000000000000320,0.172819809926363671,-0.034862806619209062
7.660000000000000142,0.172797603141687267,-0.034603544375587006
7.709999999999999964,0.172773361808474663,-0.034347049038597387
7.759999999999999787,0.172747162522607273,-0.034093288357963977
7.810000000000000497,0.172719079490629368,-0.033842230301776577
7.860000000000000320,0.172689184601022894,-0.033593843066524194
7.910000000000000142,0.172657547493454272,-0.033348095086293994
7.959999999999999964,0.172624235626044120,-0.033104955041182708
8.009999999999999787,0.172589314340711564,-0.032864391864964655
8.060000000000000497,0.172552846926642384,-0.032626374752058526
8.109999999999999432,0.172514894681930819,-0.032390873163832837
8.160000000000000142,0.172475516973441850,-0.032157856834287749
8.210000000000000853,0.172434771294941391,-0.031927295775149335
8.259999999999999787,0.172392713323540836,-0.031699160280410373
8.310000000000000497,0.172349396974499330,-0.031473420930349653
8.359999999999999432,0.172304874454429713,-0.031250048595061079
8.410000000000000142,0.172259196312949281,-0.031029014437520874
8.460000000000000853,0.172212411492819378,-0.030810289916221069
8.509999999999999787,0.172164567378612798,-0.030593846787395088
8.560000000000000497,0.172115709843950998,-0.030379657106860195
8.609999999999999432,0.172065883297349620,-0.030167693231500509
8.660000000000000142,0.172015130726710874,-0.029957927820412421
8.710000000000000853,0.171963493742500306,-0.029750333835734014
8.759999999999999787,0.171911012619644116,-0.029544884543177965
8.810000000000000497,0.171857726338184164,-0.029341553512287087
8.859999999999999432,0.171803672622723780,-0.029140314616430501
8.910000000000000142,0.171748887980699372,-0.028941142032557085
8.960000000000000853,0.171693407739511722,-0.028744010240722592
9.009999999999999787,0.171637266082547646,-0.028548894023405467
9.060000000000000497,0.171580496084125261,-0.028355768464625630
9.109999999999999432,0.171523129743393010,-0.028164608948880194
9.160000000000000142,0.171465198017212023,-0.027975391159908481
9.210000000000000853,0.171406730852052047,-0.027788091079299072
9.259999999999999787,0.171347757214928675,-0.027602684984949836
9.310000000000000497,0.171288305123410201,-0.027419149449392291
9.359999999999999432,0.171228401674720365,-0.027237461337990272
9.410000000000000142,0.171168073073964422,-0.027057597807022795
9.460000000000000853,0.171107344661503208,-0.026879536301660140
9.509999999999999787,0.171046240939500577,-0.026703254553841999
9.560000000000000497,0.170984785597668498,-0.026528730580065697
9.610000000000001208,0.170923001538233504,-0.026355942679092328
9.660000000000000142,0.170860910900147017,-0.026184869429578039
9.710000000000000853,0.170798535082562680,-0.026015489687637276
9.759999999999999787,0.170735894767601482,-0.025847782584344659
9.810000000000000497,0.170673009942426762,-0.025681727523181305
9.860000000000001208,0.170609899920649094,-0.025517304177431609
9.910000000000000142,0.170546583363080956,-0.025354492487535765
9.960000000000000853,0.170483078297860913,-0.025193272658403158
10.009999999999999787,0.170419402139966147,-0.025033625156691382
10.060000000000000497,0.170355571710131631,-0.024875530708055489
10.110000000000001208,0.170291603253193147,-0.024718970294371638
10.160000000000000142,0.170227512455872754,-0.024563925150939043
10.210000000000000853,0.170163314464022358,-0.024410376763664244
10.259999999999999787,0.170099023899341895,-0.024258306866230872
10.310000000000000497,0.170034654875588803,-0.024107697437258383
10.360000000000001208,0.169970221014293044,-0.023958530697452865
10.410000000000000142,0.169905735459993185,-0.023810789106752731
10.460000000000000853,0.169841210895008310,-0.023664455361471957
10.509999999999999787,0.169776659553759063,-0.023519512391443637
10.560000000000000497,0.169712093236652317,-0.023375943357165811
10.610000000000001208,0.169647523323542160,-0.023233731646952239
10.660000000000000142,0.169582960786780368,-0.023092860874089741
10.710000000000000853,0.169518416203868649,-0.022953314874004378
10.759999999999999787,0.169453899769724969,-0.022815077701437956
10.810000000000000497,0.169389421308575511,-0.022678133627636751
10.860000000000001208,0.169324990285484200,-0.022542467137553875
10.910000000000000142,0.169260615817529547,-0.022408062927066638
10.960000000000000853,0.169196306684641529,-0.022274905900210414
11.009999999999999787,0.169132071340107326,-0.022142981166430049
11.060000000000000497,0.169067917920756150,-0.022012274037850041
11.110000000000001208,0.169003854256834091,-0.021882770026564465
11.160000000000000142,0.168939887881577128,-0.021754454841947612
11.210000000000000853,0.168876026040492538,-0.021627314387986232
11.259999999999999787,0.168812275700356729,-0.021501334760634129
11.310000000000000497,0.168748643557939171,-0.021376502245189860
11.360000000000001208,0.168685136048459805,-0.021252803313698176
11.410000000000000142,0.168621759353788842,-0.021130224622375845
11.460000000000000853,0.168558519410396401,-0.021008753009062228
11.509999999999999787,0.168495421917059990,-0.020888375490695367
11.560000000000000497,0.168432472342336659,-0.020769079260813696
11.610000000000001208,0.168369675931808016,-0.020650851687083985
11.660000000000000142,0.168307037715103719,-0.020533680308855672
11.710000000000000853,0.168244562512711804,-0.020417552834742010
11.759999999999999787,0.168182254942580656,-0.020302457140228165
11.810000000000000497,0.168120119426520553,-0.020188381265306511
11.860000000000001208,0.168058160196410095,-0.020075313412139251
11.910000000000000142,0.167996381300213410,-0.019963241942748573
11.960000000000000853,0.167934786607814301,-0.019852155376734328
12.009999999999999787,0.167873379816672913,-0.019742042389019405
12.060000000000000497,0.167812164457310148,-0.019632891807622781
12.110000000000001208,0.167751143898625055,-0.019524692611460261
12.160000000000000142,0.167690321353050564,-0.019417433928172936
12.210000000000000853,0.167629699881552380,-0.019311105031983238
12.259999999999999787,0.167569282398475794,-0.019205695341578760
12.310000000000000497,0.167509071676244958,-0.019101194418023382
12.360000000000001208,0.167449070349919432,-0.018997591962696004
12.410000000000000142,0.167389280921612121,-0.018894877815256575
12.460000000000000853,0.167329705764772990,-0.018793041951639253
12.509999999999999787,0.167270347128342212,-0.018692074482072697
12.560000000000000497,0.167211207140777640,-0.018591965649127230
12.610000000000001208,0.167152287813959272,-0.018492705825788748
12.660000000000000142,0.167093591046975604,-0.018394285513559188
12.710000000000000853,0.167035118629794588,-0.018296695340583324
12.759999999999999787,0.166976872246823144,-0.018199926059801787
12.810000000000000497,0.166918853480358620,-0.018103968547130009
12.860000000000001208,0.166861063813935090,-0.018008813799662873
12.910000000000000142,0.166803504635568478,-0.017914452933904972
12.960000000000000853,0.166746177240902682,-0.017820877184025991
13.009999999999999787,0.166689082836260216,-0.017728077900141317
13.060000000000000497,0.166632222541600455,-0.017636046546617271
13.110000000000001208,0.166575597393387620,-0.017544774700401014
13.160000000000000142,0.166519208347371800,-0.017454254049374670
13.210000000000000853,0.166463056281285521,-0.017364476390733522
13.259999999999999787,0.166407141997458596,-0.017275433629387969
13.310000000000000497,0.166351466225352768,-0.017187117776388993
13.360000000000001208,0.166296029624020486,-0.017099520947376871
13.410000000000000142,0.166240832784487758,-0.017012635361052873
13.460000000000000853,0.166185876232065377,-0.016926453337673612
13.509999999999999787,0.166131160428589802,-0.016840967297567924
13.560000000000000497,0.166076685774595389,-0.016756169759675765
13.610000000000001208,0.166022452611421206,-0.016672053340109155
13.660000000000000142,0.165968461223253344,-0.016588610750734589
13.710000000000000853,0.165914711839105167,-0.016505834797776831
13.759999999999999787,0.165861204634737636,-0.016423718380443823
13.810000000000000497,0.165807939734520376,-0.016342254489572265
13.860000000000001208,0.165754917213237096,-0.016261436206293809
13.910000000000000142,0.165702137097835073,-0.016181256700721427
13.960000000000000853,0.165649599369122102,-0.016101709230655757
14.009999999999999787,0.165597303963411047,-0.016022787140311131
14.060000000000000497,0.165545250774114638,-0.015944483859061061
14.110000000000001208,0.165493439653291718,-0.015866792900202827
14.160000000000000142,0.165441870413145703,-0.015789707859740962
14.210000000000000853,0.165390542827477810,-0.015713222415189378
14.259999999999999787,0.165339456633095849,-0.015637330324391838
14.310000000000000497,0.165288611531179658,-0.015562025424360469
14.360000000000001208,0.165238007188604874,-0.015487301630132209
14.410000000000000142,0.165187643239226273,-0.015413152933642699
14.460000000000000853,0.165137519285121659,-0.015339573402617599
14.509999999999999787,0.165087634897797764,-0.015266557179480935
14.560000000000000497,0.165037989619359005,-0.015194098480280199
14.610000000000001208,0.164988582963640412,-0.015122191593628098
14.660000000000000142,0.164939414417305752,-0.015050830879660587
14.710000000000000853,0.164890483440911784,-0.014980010769010926
14.759999999999999787,0.164841789469940131,-0.014909725761799655
14.810000000000000497,0.164793331915796537,-0.014839970426640084
14.860000000000001208,0.164745110166780201,-0.014770739399659170
14.910000000000000142,0.164697123589022720,-0.014702027383533552
14.960000000000000853,0.164649371527397947,-0.014633829146540369
15.009999999999999787,0.164601853306404006,-0.014566139521622869
15.060000000000000497,0.164554568231017606,-0.014498953405470361
15.110000000000001208,0.164507515587522107,-0.014432265757612419
15.160000000000000142,0.164460694644309902,-0.014366071599527111
15.210000000000000853,0.164414104652659515,-0.014300366013762908
15.259999999999999787,0.164367744847488839,-0.014235144143074259
15.310000000000000497,0.164321614448084796,-0.014170401189570463
15.360000000000001208,0.164275712658810052,-0.014106132413877696
15.410000000000000142,0.164230038669787776,-0.014042333134313975
15.460000000000000853,0.164184591657564799,-0.013978998726076832
