# omega (a.u.), Re alpha(w), Im alpha(w)
0.000367493221756550,-0.000000193570139894,-0.000041640298878815
0.002207905167988250,-0.000006988750664837,-0.000250217406526157
0.004048317114219949,-0.000023492818034744,-0.000458973232011785
0.005888729060451649,-0.000049697938135118,-0.000668055309610151
0.007729141006683348,-0.000085593046692511,-0.000877609782074049
0.009569552952915049,-0.000131163767503874,-0.001087781403809362
0.011409964899146748,-0.000186392913534148,-0.001298713544081538
0.013250376845378447,-0.000251260880351822,-0.001510548190253555
0.015090788791610148,-0.000325890829238595,-0.001723425951055154
0.016931200737841847,-0.000409964741136742,-0.001937486059883062
0.018771612684073548,-0.000503606616422536,-0.002152866378131997
0.020612024630305245,-0.000606780995069504,-0.002369703398556191
0.022452436576536946,-0.000719459654050231,-0.002588132248661191
0.024292848522768647,-0.000841608557854698,-0.002808286694125700
0.026133260469000344,-0.000973193873904620,-0.003030299142253215
0.027973672415232041,-0.001114174959011972,-0.003254300645453216
0.029814084361463745,-0.001264515376134435,-0.003480420904751652
0.031654496307695443,-0.001424170639150181,-0.003708788273330496
0.033494908253927147,-0.001593113674504775,-0.003939529760096121
0.035335320200158844,-0.001771140148029322,-0.004172771033276245
0.037175732146390542,-0.001958499033902864,-0.004408636424045196
0.039016144092622246,-0.002154995512439538,-0.004647248930177286
0.040856556038853936,-0.002360576880461545,-0.004888730219727994
0.042696967985085640,-0.002575206631309516,-0.005133200634742766
0.044537379931317345,-0.002798826577069744,-0.005380779194993157
0.046377791877549042,-0.003031394256710323,-0.005631583601740056
0.048218203823780746,-0.003272838135286321,-0.005885730241523825
0.050058615770012437,-0.003523109699634143,-0.006143334189980967
0.051899027716244141,-0.003782153594045138,-0.006404509215687258
0.053739439662475845,-0.004049917916558683,-0.006669367784026914
0.055579851608707535,-0.004326335762088819,-0.006938021061087697
0.057420263554939240,-0.004611349472342229,-0.007210578917581606
0.059260675501170937,-0.004904887873046901,-0.007487149932790984
0.061101087447402641,-0.005206911665113895,-0.007767841398539771
0.062941499393634345,-0.005517356408026766,-0.008052759323189603
0.064781911339866036,-0.005836138524954339,-0.008342008435660611
0.066622323286097740,-0.006163205123536724,-0.008635692189476605
0.068462735232329444,-0.006498483337076907,-0.008933912766834393
0.070303147178561134,-0.006841909647712411,-0.009236771082697041
0.072143559124792839,-0.007193418901350846,-0.009544366788910791
0.073983971071024529,-0.007552943500258132,-0.009856798278345380
0.075824383017256219,-0.007920401735623955,-0.010174162689057575
0.077664794963487938,-0.008295753449973480,-0.010496555908477588
0.079505206909719628,-0.008678881864995380,-0.010824072577618181
0.081345618855951318,-0.009069746876827846,-0.011156806095306284
0.083186030802183022,-0.009468087667237571,-0.011494848622436681
0.085026442748414727,-0.009874226014173967,-0.011838291086247758
0.086866854694646431,-0.010287796383773392,-0.012187223184618887
0.088707266640878121,-0.010708874516454190,-0.012541733390389288
0.090547678587109812,-0.011137434504487547,-0.012901908955698118
0.092388090533341530,-0.011573108924440995,-0.013267835916345507
0.094228502479573220,-0.012015996642040373,-0.013639599096174333
0.096068914425804924,-0.012465981559478100,-0.014017282111472471
0.097909326372036629,-0.012923061136570775,-0.014400967375395269
0.099749738318268319,-0.013387080199467201,-0.014790736102408074
0.101590150264500023,-0.013857995504569258,-0.015186668312748421
0.103430562210731727,-0.014335715540534779,-0.015588842836907738
0.105270974156963418,-0.014820125081130359,-0.015997337320132452
0.107111386103195122,-0.015311267024066924,-0.016412228226943913
0.108951798049426812,-0.015808923784761224,-0.016833590845677197
0.110792209995658517,-0.016313073989265407,-0.017261499293038478
0.112632621941890221,-0.016823643547181827,-0.017696026518680619
0.114473033888121911,-0.017340480916673295,-0.018137244309796845
0.116313445834353629,-0.017863599190844789,-0.018585223295732232
0.118153857780585320,-0.018392809601268593,-0.019040032952612727
0.119994269726817010,-0.018928154041235535,-0.019501741607991532
0.121834681673048728,-0.019469414515340563,-0.019970416445512569
0.123675093619280418,-0.020016619228211963,-0.020446123509590762
0.125515505565512137,-0.020569609041245492,-0.020928927710108933
0.127355917511743827,-0.021128310291930519,-0.021418892827131063
0.129196329457975517,-0.021692672150138724,-0.021916081515631684
0.131036741404207235,-0.022262341536914983,-0.022420555310241171
0.132877153350438926,-0.022837834812745084,-0.022932374630006590
0.134717565296670616,-0.023418575199175680,-0.023451598783168118
0.136557977242902306,-0.024004606420751241,-0.023978285971950418
0.138398389189134025,-0.024595872780660201,-0.024512493297369133
0.140238801135365715,-0.025192168258274830,-0.025054276764051975
0.142079213081597405,-0.025793466222268156,-0.025603691285074288
0.143919625027829096,-0.026399833506554587,-0.026160790686808807
0.145760036974060814,-0.027010837437151068,-0.026725627713789519
0.147600448920292504,-0.027626734661202860,-0.027298254033588994
0.149440860866524222,-0.028247430908421294,-0.027878720241709575
0.151281272812755913,-0.028872531509905923,-0.028467075866487595
0.153121684758987603,-0.029502235481890442,-0.029063369374010717
0.154962096705219321,-0.030136093118820886,-0.029667648173048088
0.156802508651450984,-0.030774504966591142,-0.030279958619993018
0.158642920597682702,-0.031417089187101468,-0.030900346023818089
0.160483332543914420,-0.032063749510561214,-0.031528854651042264
0.162323744490146082,-0.032714312799720195,-0.032165527730709902
0.164164156436377801,-0.033369094017855767,-0.032810407459381498
0.166004568382609519,-0.034027609423889667,-0.033463535006135692
0.167844980328841209,-0.034689864332093451,-0.034124950517582534
0.169685392275072899,-0.035355624589989872,-0.034794693122887736
0.171525804221304617,-0.036025292144181535,-0.035472800938807565
0.173366216167536308,-0.036698179906255061,-0.036159311074734232
0.175206628113767998,-0.037374677606879216,-0.036854259637751630
0.177047040059999716,-0.038054178779859636,-0.037557681737700938
0.178887452006231407,-0.038736942050841411,-0.038269611492256196
0.180727863952463097,-0.039423133788444309,-0.038990082032009425
0.182568275898694815,-0.040112135044951334,-0.039719125505564931
0.184408687844926505,-0.040804228856027011,-0.040456773084642933
0.186249099791158196,-0.041498994663900342,-0.041203054969192077
0.188089511737389914,-0.042196594307293889,-0.041958000392510360
0.189929923683621604,-0.042896834549604246,-0.042721637626374945
0.191770335629853322,-0.043599635471670929,-0.043493993986179771
0.193610747576084985,-0.044304904519721036,-0.044275095836081378
0.195451159522316703,-0.045012600773115426,-0.045064968594152599
0.197291571468548421,-0.045722564809298191,-0.045863636737543449
0.199131983414780084,-0.046434722467071601,-0.046671123807649796
0.200972395361011802,-0.047148806942358359,-0.047487452415288858
0.202812807307243520,-0.047865273489589091,-0.048312644245881609
0.204653219253475183,-0.048583519143843491,-0.049146720064641998
0.206493631199706901,-0.049303529144092903,-0.049989699721772474
0.208334043145938619,-0.050025342933175544,-0.050841602157665873
0.210174455092170281,-0.050748876902777323,-0.051702445408113126
0.212014867038402000,-0.051473826388355091,-0.052572246609517113
0.213855278984633718,-0.052200239097292989,-0.053451022004111740
0.215695690930865380,-0.052927929061381926,-0.054338786945186436
0.217536102877097098,-0.053657313357841921,-0.055235555902316234
0.219376514823328816,-0.054387655777465897,-0.056141342466596043
0.221216926769560479,-0.055119049851158772,-0.057056159355880397
0.223057338715792197,-0.055851270878532928,-0.057980018420027236
0.224897750662023888,-0.056584646423846002,-0.058912930646146056
0.226738162608255606,-0.057319154072484432,-0.059854906163850398
0.228578574554487296,-0.058053975486860948,-0.060805954250513883
0.230418986500718986,-0.058789611042954222,-0.061766083336530185
0.232259398446950704,-0.059525546200655068,-0.062735301010576269
0.234099810393182395,-0.060262188254223747,-0.063713614024878976
0.235940222339414085,-0.060999492776797774,-0.064701028300484673
0.237780634285645803,-0.061736766092244162,-0.065697548932531630
0.239621046231877494,-0.062474370817938517,-0.066703180195525152
0.241461458178109184,-0.063211981032950088,-0.067717925548615041
0.243301870124340902,-0.063949672825130907,-0.068741787640875254
0.245142282070572592,-0.064687289596868341,-0.069774768316585828
0.246982694016804283,-0.065424454350106132,-0.070816868620516116
0.248823105963036001,-0.066161990384567201,-0.071868088803210189
0.250663517909267719,-0.066898810305341755,-0.072928428326273262
0.252503929855499409,-0.067635436949419564,-0.073997885867659416
0.254344341801731100,-0.068371405350017456,-0.075076459326960471
0.256184753747962790,-0.069106451311793077,-0.076164145830695487
0.258025165694194480,-0.069840864743594716,-0.077260941737600952
0.259865577640426171,-0.070575386454178934,-0.078366842643921283
0.261705989586657917,-0.071308675085934664,-0.079481843388699708
0.263546401532889552,-0.072040731427056873,-0.080605938059068974
0.265386813479121297,-0.072771838003711412,-0.081739119995542245
0.267227225425352988,-0.073501444808115532,-0.082881381797302908
0.269067637371584678,-0.074230819317773894,-0.084032715327494636
0.270908049317816368,-0.074957806510341798,-0.085193111718510114
0.272748461264048114,-0.075684018512334764,-0.086362561377279143
0.274588873210279749,-0.076408770437792137,-0.087541053990555256
0.276429285156511495,-0.077131980297123953,-0.088728578530201621
0.278269697102743185,-0.077854194275800967,-0.089925123258474335
0.280110109048974876,-0.078573852733606384,-0.091130675733305327
0.281950520995206566,-0.079291855751944806,-0.092345222813582512
0.283790932941438312,-0.080007981284155469,-0.093568750664427894
0.285631344887670002,-0.080722094597029059,-0.094801244762473605
0.287471756833901693,-0.081434889506785402,-0.096042689901135694
0.289312168780133383,-0.082144232530310654,-0.097293070195884693
0.291152580726365073,-0.082853177159564265,-0.098552369089513897
0.292992992672596764,-0.083557865118036159,-0.099820569357404396
0.294833404618828510,-0.084261153418585602,-0.101097653112786845
0.296673816565060200,-0.084962516070315380,-0.102383601811999916
0.298514228511291890,-0.085661038793660202,-0.103678396259745564
0.300354640457523636,-0.086356747199449288,-0.104982016614339937
0.302195052403755271,-0.087049912572406074,-0.106294442392960625
0.304035464349986961,-0.087740299814094147,-0.107615652476890380
0.305875876296218652,-0.088427615277396940,-0.108945625116755443
0.307716288242450398,-0.089112212769089150,-0.110284337937760518
0.309556700188682088,-0.089793806197878398,-0.111631767944918581
0.311397112134913834,-0.090472227246683440,-0.112987891528275763
0.313237524081145469,-0.091147448089210409,-0.114352684468131946
0.315077936027377159,-0.091819279003131471,-0.115726121940255777
0.316918347973608849,-0.092488398754246762,-0.117108178521093870
0.318758759919840595,-0.093153999744466712,-0.118498828192975733
0.320599171866072286,-0.093815334377789619,-0.119898044349312186
0.322439583812303976,-0.094474315382495802,-0.121305799799788006
0.324279995758535666,-0.095128522584697534,-0.122722066775549171
0.326120407704767357,-0.095779696710938056,-0.124146816934383439
0.327960819650999047,-0.096426891486150787,-0.125580021365894551
0.329801231597230793,-0.097070519825077653,-0.127021650596670616
0.331641643543462483,-0.097710342991075574,-0.128471674595445007
0.333482055489694174,-0.098345809564595654,-0.129930062778251310
0.335322467435925919,-0.098977187397807614,-0.131396784013570828
0.337162879382157554,-0.099604029789622447,-0.132871806627472666
0.339003291328389245,-0.100227785291150340,-0.134355098408747736
0.340843703274620990,-0.100846884413333920,-0.135846626614033683
0.342684115220852681,-0.101461307119681765,-0.137346357972933431
0.344524527167084371,-0.102071432852289201,-0.138854258693125981
0.346364939113316117,-0.102677197657569219,-0.140370294465468615
0.348205351059547752,-0.103278335905011606,-0.141894430469091060
0.350045763005779442,-0.103874477904103854,-0.143426631376482705
0.351886174952011188,-0.104466308754846263,-0.144966861358569621
0.353726586898242878,-0.105053640137488372,-0.146515084089784420
0.355566998844474569,-0.105635322544687424,-0.148071262753126986
0.357407410790706315,-0.106212711101418056,-0.149635360045216798
0.359247822736938005,-0.106785654493592494,-0.151207338181334916
0.361088234683169640,-0.107353071565834637,-0.152787158900458936
0.362928646629401330,-0.107915043657948462,-0.154374783470287158
0.364769058575633076,-0.108471840369962325,-0.155970172692253800
0.366609470521864766,-0.109023757556341361,-0.157573286906535104
0.368449882468096512,-0.109570329459301646,-0.159184085997044783
0.370290294414328203,-0.110111272158346860,-0.160802529396420452
0.372130706360559838,-0.110646966953501250,-0.162428576091000254
0.373971118306791528,-0.111177207450794513,-0.164062184625788393
0.375811530253023274,-0.111701878031449570,-0.165703313109411582
0.377651942199254964,-0.112220513132133687,-0.167351919219063838
0.379492354145486654,-0.112734137692901262,-0.169007960205442093
0.381332766091718400,-0.113241731657814870,-0.170671392897670360
0.383173178037950091,-0.113743292911697463,-0.172342173708212976
0.385013589984181726,-0.114239176291292086,-0.174020258637777259
0.386854001930413471,-0.114729178155713485,-0.175705603280205763
0.388694413876645162,-0.115213395521251635,-0.177398162827355377
0.390534825822876852,-0.115691597889747214,-0.179097892073967230
0.392375237769108598,-0.116163264200358884,-0.180804745422524282
0.394215649715340288,-0.116628752569094440,-0.182518676888096310
0.396056061661571923,-0.117088116945309892,-0.184239640103175700
0.397896473607803669,-0.117541481349016680,-0.185967588322498711
0.399736885554035359,-0.117988426486350759,-0.187702474427856064
0.401577297500267050,-0.118428887132246655,-0.189444250932892105
0.403417709446498796,-0.118862683582160178,-0.191192869987890007
0.405258121392730486,-0.119290474681122222,-0.192948283384545727
0.407098533338962121,-0.119710847539950371,-0.194710442560730390
0.408938945285193867,-0.120125260611693124,-0.196479298605238106
0.410779357231425557,-0.120533094469489718,-0.198254802262521734
0.412619769177657247,-0.120933546381031362,-0.200036903937417382
0.414460181123888993,-0.121327801142671457,-0.201825553699853749
0.416300593070120684,-0.121715393993853671,-0.203620701289549927
0.418141005016352374,-0.122095459224768887,-0.205422296120699066
0.419981416962584009,-0.122469021414973997,-0.207230287286639753
0.421821828908815755,-0.122835313692960926,-0.209044623564513171
0.423662240855047445,-0.123194747432018720,-0.210865253419907028
0.425502652801279191,-0.123547279558325937,-0.212692125011485683
0.427343064747510881,-0.123891954984521505,-0.214525186195607259
0.429183476693742572,-0.124230252212347222,-0.216364384530926074
0.431023888639974206,-0.124561041703953906,-0.218209667282981051
0.432864300586205952,-0.124884476055280122,-0.220060981428771618
0.434704712532437643,-0.125200295029562619,-0.221918273661316945
0.436545124478669333,-0.125509325779571190,-0.223781490394203003
0.438385536424901079,-0.125810694085219804,-0.225650577766114385
0.440225948371132769,-0.126104126603232808,-0.227525481645351968
0.442066360317364404,-0.126390640797394260,-0.229406147634335339
0.443906772263596150,-0.126669355309431741,-0.231292521074091761
0.445747184209827840,-0.126940418286635659,-0.233184547048728569
0.447587596156059531,-0.127203644236861257,-0.235082170389892875
0.449428008102291277,-0.127459362537487186,-0.236985335681214215
0.451268420048522967,-0.127707266175594553,-0.238893987262733781
0.453108831994754657,-0.127947593197511894,-0.240808069235317473
0.454949243940986348,-0.128180039934831486,-0.242727525465053939
0.456789655887218038,-0.128404440679645571,-0.244652299587637262
0.458630067833449728,-0.128621040977877632,-0.246582335012734716
0.460470479779681474,-0.128829866744091914,-0.248517574928338231
0.462310891725913164,-0.129030165793404733,-0.250457962305100090
0.464151303672144855,-0.129223044641520207,-0.252403439900653948
0.465991715618376545,-0.129407181486846240,-0.254353950263919493
0.467832127564608236,-0.129583818606727019,-0.256309435739390357
0.469672539510839926,-0.129751764235752992,-0.258269838471407664
0.471512951457071672,-0.129911679532674657,-0.260235100408416631
0.473353363403303362,-0.130063890085547834,-0.262205163307206113
0.475193775349535052,-0.130207277574156483,-0.264179968737134285
0.477034187295766798,-0.130342575327987598,-0.266159458084335276
0.478874599241998433,-0.130469526333774399,-0.268143572555911536
0.480715011188230124,-0.130587967241634823,-0.270132253184108495
0.482555423134461814,-0.130697785748264045,-0.272125440830473631
0.484395835080693560,-0.130799387216856494,-0.274123076189997428
0.486236247026925250,-0.130893099958920706,-0.276125099795239082
0.488076658973156996,-0.130977444144661614,-0.278131452020434822
0.489917070919388631,-0.131053309023894560,-0.280142073085589305
0.491757482865620321,-0.131120786011625134,-0.282156903060550468
0.493597894811852012,-0.131179687723213839,-0.284175881869066116
0.495438306758083757,-0.131230053624865922,-0.286198949292825799
0.497278718704315448,-0.131271420151656520,-0.288226044975482820
0.499119130650547138,-0.131304510567851113,-0.290257108426660526
0.500959542596778884,-0.131328752686929562,-0.292292079025941953
0.502799954543010519,-0.131343653957713968,-0.294330896026840261
0.504640366489242265,-0.131350078645830148,-0.296373498560752791
0.506480778435473900,-0.131347731713024440,-0.298419825640897751
0.508321190381705645,-0.131337242909300655,-0.300469816166233472
0.510161602327937391,-0.131316617678829961,-0.302523408925358617
0.512002014274169026,-0.131287595179191086,-0.304580542600396909
0.513842426220400661,-0.131249866447348734,-0.306641155770861984
0.515682838166632407,-0.131203532440249654,-0.308705186917506202
0.517523250112864153,-0.131147466208753838,-0.310772574426150028
0.519363662059095788,-0.131082696387981756,-0.312843256591494590
0.521204074005327533,-0.131008847297449521,-0.314917171620915815
0.523044485951559279,-0.130925930492634068,-0.316994257638241017
0.524884897897790914,-0.130833882158236992,-0.319074452687505505
0.526725309844022660,-0.130732980193815074,-0.321157694736694588
0.528565721790254295,-0.130622596752992925,-0.323243921681463153
0.530406133736486041,-0.130503238108432507,-0.325333071348840430
0.532246545682717787,-0.130375113181045582,-0.327425081500914206
0.534086957628949421,-0.130237234683909020,-0.329519889838498059
0.535927369575181167,-0.130089954381993417,-0.331617434004779721
0.537767781521412802,-0.129933705004528888,-0.333717651588950059
0.539608193467644548,-0.129768684358494008,-0.335820480129815524
0.541448605413876183,-0.129593997219088541,-0.337925857119389106
0.543289017360107929,-0.129409638553145689,-0.340033720006466755
0.545129429306339675,-0.129217233549298344,-0.342144006200180595
0.546969841252571309,-0.129014319570512903,-0.344256653073536700
0.548810253198803055,-0.128801771763128514,-0.346371597966933731
0.550650665145034690,-0.128580480065510400,-0.348488778191660076
0.552491077091266436,-0.128350752211843333,-0.350608131033376791
0.554331489037498182,-0.128109919706987208,-0.352729593755576554
0.556171900983729817,-0.127860434933611627,-0.354853103603027520
0.558012312929961563,-0.127602106127096132,-0.356978597805197806
0.559852724876193197,-0.127333314685625171,-0.359106013579657768
0.561693136822424943,-0.127055180925332384,-0.361235288135467791
0.563533548768656578,-0.126766525708334854,-0.363366358676543155
