# omega (a.u.), Re alpha(w), Im alpha(w)
0.000000000000000000e+00,0.000000000000000000e+00,0.000000000000000000e+00
1.841148405593937476e-03,3.136755604448033922e-07,-2.869577473640470161e-04
3.682296811187874951e-03,1.254699825375306461e-06,-5.739141016372258921e-04
5.523445216781813077e-03,2.823065544884360070e-06,-8.608676697489568925e-04
7.364593622375749903e-03,5.018760637228494295e-06,-1.147817058669239366e-03
9.205742027969688462e-03,7.841768187020652293e-06,-1.434760875428934624e-03
1.104689043356362615e-02,1.129206644700322868e-05,-1.721697727140057482e-03
1.288803883915756211e-02,1.536962883759665729e-05,-2.008626221016051282e-03
1.472918724475149981e-02,2.007442394830839249e-05,-2.295544964392077971e-03
1.657033565034543576e-02,2.540641553690075347e-05,-2.582452564745284229e-03
1.841148405593937692e-02,3.136556253075045790e-05,-2.869347629715081251e-03
2.025263246153331115e-02,3.795181902797086773e-05,-3.156228767123408271e-03
2.209378086712725231e-02,4.516513429713669671e-05,-3.443094584994997164e-03
2.393492927272118653e-02,5.300545277885939342e-05,-3.729943691577626216e-03
2.577607767831512423e-02,6.147271408668733398e-05,-4.016774695362373450e-03
2.761722608390906192e-02,7.056685300784717920e-05,-4.303586205103853909e-03
2.945837448950299961e-02,8.028779950419730161e-05,-4.590376829840453476e-03
3.129952289509693730e-02,9.063547871401112866e-05,-4.877145178914568321e-03
3.314067130069087153e-02,1.016098109523563153e-04,-5.163889861992805759e-03
3.498181970628481269e-02,1.132107117132430364e-04,-5.450609489086198980e-03
3.682296811187875385e-02,1.254380916706849191e-04,-5.737302670570407909e-03
3.866411651747268807e-02,1.382918566796561091e-04,-6.023968017205899236e-03
4.050526492306662230e-02,1.517719077790627836e-04,-6.310604140158129066e-03
4.234641332866055652e-02,1.658781411916491653e-04,-6.597209651017700398e-03
4.418756173425450462e-02,1.806104483270117391e-04,-6.883783161820524951e-03
4.602871013984843884e-02,1.959687157828453536e-04,-7.170323285067937286e-03
4.786985854544237307e-02,2.119528253467829217e-04,-7.456828633746853154e-03
4.971100695103631423e-02,2.285626539989631101e-04,-7.743297821349852395e-03
5.155215535663024845e-02,2.457980739130974650e-04,-8.029729461895285247e-03
5.339330376222418961e-02,2.636589524592400607e-04,-8.316122169947362183e-03
5.523445216781812384e-02,2.821451522062704042e-04,-8.602474560636183890e-03
5.707560057341206500e-02,3.012565309231252510e-04,-8.888785249677833705e-03
5.891674897900599922e-02,3.209929415824778185e-04,-9.175052853394366839e-03
6.075789738459993344e-02,3.413542323619810949e-04,-9.461275988733863773e-03
6.259904579019387461e-02,3.623402466474588083e-04,-9.747453273290367440e-03
6.444019419578780883e-02,3.839508230354400750e-04,-1.003358332532392275e-02
6.628134260138174305e-02,4.061857953356754532e-04,-1.031966476378049467e-02
6.812249100697569115e-02,4.290449925739271372e-04,-1.060569620831190024e-02
6.996363941256962538e-02,4.525282389948845937e-04,-1.089167627929572835e-02
7.180478781816355960e-02,4.766353540653056045e-04,-1.117760359785525438e-02
7.364593622375750770e-02,5.013661524761456930e-04,-1.146347678587929589e-02
7.548708462935142804e-02,5.267204441466863873e-04,-1.174929446604202482e-02
7.732823303494537615e-02,5.526980342269511475e-04,-1.203505526182286831e-02
7.916938144053932425e-02,5.792987231016008499e-04,-1.232075779752626193e-02
8.101052984613324459e-02,6.065223063923773621e-04,-1.260640069830141867e-02
8.285167825172719269e-02,6.343685749622032365e-04,-1.289198259016212725e-02
8.469282665732111304e-02,6.628373149183682889e-04,-1.317750210000643088e-02
8.653397506291506114e-02,6.919283076161818419e-04,-1.346295785563637187e-02
8.837512346850900924e-02,7.216413296621441249e-04,-1.374834848577763217e-02
9.021627187410292958e-02,7.519761529185645414e-04,-1.403367262009919646e-02
9.205742027969687769e-02,7.829325445063016649e-04,-1.431892888923300307e-02
9.389856868529081191e-02,8.145102668093640507e-04,-1.460411592479346661e-02
9.573971709088474613e-02,8.467090774784917897e-04,-1.488923235939712195e-02
9.758086549647869423e-02,8.795287294350402282e-04,-1.517427682668211382e-02
9.942201390207262846e-02,9.129689708757300756e-04,-1.545924796132767606e-02
1.012631623076665627e-01,9.470295452760411729e-04,-1.574414439907369581e-02
1.031043107132604969e-01,9.817101913948346643e-04,-1.602896477674006087e-02
1.049454591188544450e-01,1.017010643278517959e-03,-1.631370773224612505e-02
1.067866075244483792e-01,1.052930630265136837e-03,-1.659837190463009718e-02
1.086277559300423134e-01,1.089469876990274916e-03,-1.688295593406832426e-02
1.104689043356362477e-01,1.126628103389626032e-03,-1.716745846189469266e-02
1.123100527412301819e-01,1.164405024704828762e-03,-1.745187813061985921e-02
1.141512011468241300e-01,1.202800351488024196e-03,-1.773621358395047892e-02
1.159923495524180503e-01,1.241813789605923646e-03,-1.802046346680848121e-02
1.178334979580119984e-01,1.281445040245896222e-03,-1.830462642535019002e-02
1.196746463636059465e-01,1.321693799920001635e-03,-1.858870110698546824e-02
1.215157947691998669e-01,1.362559760470238380e-03,-1.887268616039686209e-02
1.233569431747938150e-01,1.404042609073355213e-03,-1.915658023555864148e-02
1.251980915803877492e-01,1.446142028246264572e-03,-1.944038198375580909e-02
1.270392399859816834e-01,1.488857695851750033e-03,-1.972409005760313375e-02
1.288803883915756177e-01,1.532189285102613166e-03,-2.000770311106407975e-02
1.307215367971695519e-01,1.576136464568144487e-03,-2.029121979946973270e-02
1.325626852027634861e-01,1.620698898178972881e-03,-2.057463877953765244e-02
1.344038336083574481e-01,1.665876245232909662e-03,-2.085795870939072955e-02
1.362449820139513823e-01,1.711668160400439415e-03,-2.114117824857596195e-02
1.380861304195453165e-01,1.758074293730158780e-03,-2.142429605808322465e-02
1.399272788251392508e-01,1.805094290654693815e-03,-2.170731080036396657e-02
1.417684272307331850e-01,1.852727791996979477e-03,-2.199022113934989003e-02
1.436095756363271192e-01,1.900974433975368598e-03,-2.227302574047156786e-02
1.454507240419210812e-01,1.949833848210423114e-03,-2.255572327067701874e-02
1.472918724475150154e-01,1.999305661729931533e-03,-2.283831239845025146e-02
1.491330208531089496e-01,2.049389496976271319e-03,-2.312079179382978827e-02
1.509741692587028561e-01,2.100084971811579451e-03,-2.340316012842705296e-02
1.528153176642968181e-01,2.151391699524693706e-03,-2.368541607544484562e-02
1.546564660698907523e-01,2.203309288836571931e-03,-2.396755830969562323e-02
1.564976144754846865e-01,2.255837343908250088e-03,-2.424958550761990503e-02
1.583387628810786485e-01,2.308975464345768436e-03,-2.453149634730444201e-02
1.601799112866725550e-01,2.362723245207762682e-03,-2.481328950850046622e-02
1.620210596922664892e-01,2.417080277011528135e-03,-2.509496367264191924e-02
1.638622080978604512e-01,2.472046145739684089e-03,-2.537651752286351411e-02
1.657033565034543854e-01,2.527620432847767998e-03,-2.565794974401876954e-02
1.675445049090483196e-01,2.583802715270068929e-03,-2.593925902269816203e-02
1.693856533146422261e-01,2.640592565427014871e-03,-2.622044404724695535e-02
1.712268017202361881e-01,2.697989551232172784e-03,-2.650150350778321742e-02
1.730679501258301223e-01,2.755993236099412574e-03,-2.678243609621567059e-02
1.749090985314240565e-01,2.814603178949270489e-03,-2.706324050626148295e-02
1.767502469370180185e-01,2.873818934217804016e-03,-2.734391543346408049e-02
1.785913953426119249e-01,2.933640051861787380e-03,-2.762445957521082740e-02
1.804325437482058592e-01,2.994066077367411177e-03,-2.790487163075073412e-02
1.822736921537998211e-01,3.055096551757798505e-03,-2.818515030121199541e-02
1.841148405593937554e-01,3.116731011599531854e-03,-2.846529428961964980e-02
1.859559889649876896e-01,3.178968989010761206e-03,-2.874530230091300320e-02
1.877971373705816238e-01,3.241810011669093126e-03,-2.902517304196308365e-02
1.896382857761755580e-01,3.305253602818781621e-03,-2.930490522159008224e-02
1.914794341817694923e-01,3.369299281278713507e-03,-2.958449755058064831e-02
1.933205825873634542e-01,3.433946561450140506e-03,-2.986394874170521588e-02
1.951617309929573885e-01,3.499194953324633386e-03,-3.014325750973516002e-02
1.970028793985512949e-01,3.565043962492161871e-03,-3.042242257146002271e-02
1.988440278041452569e-01,3.631493090149115564e-03,-3.070144264570463452e-02
2.006851762097391911e-01,3.698541833105880357e-03,-3.098031645334610451e-02
2.025263246153331254e-01,3.766189683795871136e-03,-3.125904271733089684e-02
2.043674730209270873e-01,3.834436130283066547e-03,-3.153762016269170965e-02
2.062086214265209938e-01,3.903280656270585909e-03,-3.181604751656435387e-02
2.080497698321149280e-01,3.972722741109093077e-03,-3.209432350820463908e-02
2.098909182377088900e-01,4.042761859805349932e-03,-3.237244686900505458e-02
2.117320666433028242e-01,4.113397483030331418e-03,-3.265041633251149905e-02
2.135732150488967585e-01,4.184629077128017988e-03,-3.292823063443992698e-02
2.154143634544906649e-01,4.256456104123852377e-03,-3.320588851269289793e-02
2.172555118600846269e-01,4.328878021734186912e-03,-3.348338870737616740e-02
2.190966602656785611e-01,4.401894283373878995e-03,-3.376072996081500716e-02
2.209378086712724953e-01,4.475504338165820807e-03,-3.403791101757074750e-02
2.227789570768664573e-01,4.549707630950169772e-03,-3.431493062445700043e-02
2.246201054824603638e-01,4.624503602292252824e-03,-3.459178753055593830e-02
2.264612538880542980e-01,4.699891688492519384e-03,-3.486848048723454468e-02
2.283024022936482600e-01,4.775871321595209773e-03,-3.514500824816073343e-02
2.301435506992421942e-01,4.852441929397795575e-03,-3.542136956931937058e-02
2.319846991048361007e-01,4.929602935460052245e-03,-3.569756320902834484e-02
2.338258475104300627e-01,5.007353759112689352e-03,-3.597358792795449928e-02
2.356669959160239969e-01,5.085693815467954085e-03,-3.624944248912947281e-02
2.375081443216179311e-01,5.164622515428114041e-03,-3.652512565796554173e-02
2.393492927272118931e-01,5.244139265695357301e-03,-3.680063620227135707e-02
2.411904411328058273e-01,5.324243468781130438e-03,-3.707597289226768206e-02
2.430315895383997338e-01,5.404934523015454857e-03,-3.735113450060285195e-02
2.448727379439936958e-01,5.486211822557085331e-03,-3.762611980236849757e-02
2.467138863495876300e-01,5.568074757403467315e-03,-3.790092757511486637e-02
2.485550347551815642e-01,5.650522713399343776e-03,-3.817555659886634478e-02
2.503961831607754984e-01,5.733555072247558185e-03,-3.845000565613675148e-02
2.522373315663694604e-01,5.817171211519005757e-03,-3.872427353194459604e-02
2.540784799719633669e-01,5.901370504662388668e-03,-3.899835901382830289e-02
2.559196283775573288e-01,5.986152321013363253e-03,-3.927226089186129643e-02
2.577607767831512353e-01,6.071516025806565978e-03,-3.954597795866714172e-02
2.596019251887451973e-01,6.157460980183527242e-03,-3.981950900943448390e-02
2.614430735943391038e-01,6.243986541204413730e-03,-4.009285284193193216e-02
2.632842219999330657e-01,6.331092061858208629e-03,-4.036600825652304769e-02
2.651253704055269722e-01,6.418776891072122508e-03,-4.063897405618088071e-02
2.669665188111209342e-01,6.507040373722372019e-03,-4.091174904650295846e-02
2.688076672167148962e-01,6.595881850645405296e-03,-4.118433203572571810e-02
2.706488156223088026e-01,6.685300658647001446e-03,-4.145672183473905759e-02
2.724899640279027646e-01,6.775296130514067532e-03,-4.172891725710109467e-02
2.743311124334966711e-01,6.865867595024164813e-03,-4.200091711905219738e-02
2.761722608390906331e-01,6.957014376957496547e-03,-4.227272023952956259e-02
2.780134092446845395e-01,7.048735797106265091e-03,-4.254432544018149631e-02
2.798545576502785015e-01,7.141031172286151432e-03,-4.281573154538149961e-02
2.816957060558724635e-01,7.233899815346931696e-03,-4.308693738224238928e-02
2.835368544614663699e-01,7.327341035184169182e-03,-4.335794178063050869e-02
2.853780028670603319e-01,7.421354136748422280e-03,-4.362874357317948759e-02
2.872191512726542384e-01,7.515938421058268766e-03,-4.389934159530419627e-02
2.890602996782482004e-01,7.611093185209623010e-03,-4.416973468521474128e-02
2.909014480838421624e-01,7.706817722388006539e-03,-4.443992168392992687e-02
2.927425964894360688e-01,7.803111321879238269e-03,-4.470990143529109812e-02
2.945837448950300308e-01,7.899973269080864599e-03,-4.497967278597579666e-02
2.964248933006239373e-01,7.997402845513239961e-03,-4.524923458551102784e-02
2.982660417062178992e-01,8.095399328830587410e-03,-4.551858568628686097e-02
3.001071901118118612e-01,8.193961992833228430e-03,-4.578772494356993933e-02
3.019483385174057122e-01,8.293090107478112705e-03,-4.605665121551639346e-02
3.037894869229996742e-01,8.392782938890935157e-03,-4.632536336318540671e-02
3.056306353285936361e-01,8.493039749377285022e-03,-4.659386025055209379e-02
3.074717837341875426e-01,8.593859797434499209e-03,-4.686214074452067779e-02
3.093129321397815046e-01,8.695242337762802698e-03,-4.713020371493740340e-02
3.111540805453754666e-01,8.797186621278207941e-03,-4.739804803460351962e-02
3.129952289509693730e-01,8.899691895122440952e-03,-4.766567257928791546e-02
3.148363773565633350e-01,9.002757402676373269e-03,-4.793307622774009569e-02
3.166775257621572970e-01,9.106382383571216127e-03,-4.820025786170260840e-02
3.185186741677511479e-01,9.210566073700075448e-03,-4.846721636592368071e-02
3.203598225733451099e-01,9.315307705230452262e-03,-4.873395062816986145e-02
3.222009709789390719e-01,9.420606506616023210e-03,-4.900045953923827524e-02
3.240421193845329784e-01,9.526461702608868612e-03,-4.926674199296887657e-02
3.258832677901269403e-01,9.632872514271029196e-03,-4.953279688625702309e-02
3.277244161957209023e-01,9.739838158987334377e-03,-4.979862311906529948e-02
3.295655646013148088e-01,9.847357850477070004e-03,-5.006421959443584785e-02
3.314067130069087708e-01,9.955430798806442355e-03,-5.032958521850219857e-02
3.332478614125026772e-01,1.006405621040102824e-02,-5.059471890050134396e-02
3.350890098180966392e-01,1.017323328805751041e-02,-5.085961955278554131e-02
3.369301582236906012e-01,1.028296123095703840e-02,-5.112428609083398412e-02
3.387713066292844521e-01,1.039323923467640534e-02,-5.138871743326459823e-02
3.406124550348784141e-01,1.050406649120179912e-02,-5.165291250184565752e-02
3.424536034404723761e-01,1.061544218894047882e-02,-5.191687022150712899e-02
3.442947518460662826e-01,1.072736551273340520e-02,-5.218058952035230930e-02
3.461359002516602446e-01,1.083983564386818178e-02,-5.244406932966907270e-02
3.479770486572542065e-01,1.095285176009166972e-02,-5.270730858394113288e-02
3.498181970628481130e-01,1.106641303562235466e-02,-5.297030622085923540e-02
3.516593454684420750e-01,1.118051864116337800e-02,-5.323306118133228765e-02
3.535004938740360370e-01,1.129516774391516563e-02,-5.349557240949837783e-02
3.553416422796298879e-01,1.141035950758868996e-02,-5.375783885273562046e-02
3.571827906852238499e-01,1.152609309241733535e-02,-5.401985946167318225e-02
3.590239390908178119e-01,1.164236765517100147e-02,-5.428163319020180844e-02
3.608650874964117183e-01,1.175918234916839208e-02,-5.454315899548473068e-02
3.627062359020056803e-01,1.187653632429003410e-02,-5.480443583796810320e-02
3.645473843075996423e-01,1.199442872699175121e-02,-5.506546268139159844e-02
3.663885327131935488e-01,1.211285870031694918e-02,-5.532623849279882239e-02
3.682296811187875107e-01,1.223182538391072438e-02,-5.558676224254757020e-02
3.700708295243814727e-01,1.235132791403226703e-02,-5.584703290432024153e-02
3.719119779299753792e-01,1.247136542356843368e-02,-5.610704945513388109e-02
3.737531263355692857e-01,1.259193704204665358e-02,-5.636681087535028861e-02
3.755942747411632476e-01,1.271304189564896082e-02,-5.662631614868605945e-02
3.774354231467571541e-01,1.283467910722412009e-02,-5.688556426222251411e-02
3.792765715523511161e-01,1.295684779630254004e-02,-5.714455420641539191e-02
3.811177199579450781e-01,1.307954707910803302e-02,-5.740328497510475275e-02
3.829588683635389845e-01,1.320277606857249431e-02,-5.766175556552454590e-02
3.848000167691329465e-01,1.332653387434924556e-02,-5.791996497831224111e-02
3.866411651747269085e-01,1.345081960282534621e-02,-5.817791221751821701e-02
3.884823135803208149e-01,1.357563235713679824e-02,-5.843559629061524652e-02
3.903234619859147769e-01,1.370097123718117850e-02,-5.869301620850780193e-02
3.921646103915087389e-01,1.382683533963165526e-02,-5.895017098554120039e-02
3.940057587971025899e-01,1.395322375795002637e-02,-5.920705963951081868e-02
3.958469072026965518e-01,1.408013558240162055e-02,-5.946368119167118327e-02
3.976880556082905138e-01,1.420756990006745261e-02,-5.972003466674477568e-02
3.995292040138844203e-01,1.433552579485946644e-02,-5.997611909293099758e-02
4.013703524194783823e-01,1.446400234753342576e-02,-6.023193350191512196e-02
4.032115008250723442e-01,1.459299863570327933e-02,-6.048747692887668226e-02
4.050526492306662507e-01,1.472251373385471615e-02,-6.074274841249829859e-02
4.068937976362602127e-01,1.485254671335903276e-02,-6.099774699497421265e-02
4.087349460418541747e-01,1.498309664248737363e-02,-6.125247172201859353e-02
4.105760944474480256e-01,1.511416258642456038e-02,-6.150692164287403785e-02
4.124172428530419876e-01,1.524574360728283597e-02,-6.176109581031977158e-02
4.142583912586359496e-01,1.537783876411674862e-02,-6.201499328067977546e-02
4.160995396642298561e-01,1.551044711293606861e-02,-6.226861311383092429e-02
4.179406880698238180e-01,1.564356770672080746e-02,-6.252195437321106386e-02
4.197818364754177800e-01,1.577719959543480432e-02,-6.277501612582682411e-02
4.216229848810116865e-01,1.591134182604033581e-02,-6.302779744226147396e-02
4.234641332866056485e-01,1.604599344251183765e-02,-6.328029739668268594e-02
4.253052816921995549e-01,1.618115348585084587e-02,-6.353251506685010652e-02
4.271464300977935169e-01,1.631682099409927089e-02,-6.378444953412308605e-02
4.289875785033874234e-01,1.645299500235465270e-02,-6.403609988346802007e-02
4.308287269089813298e-01,1.658967454278375067e-02,-6.428746520346573234e-02
4.326698753145752918e-01,1.672685864463720196e-02,-6.453854458631889945e-02
4.345110237201692538e-01,1.686454633426432564e-02,-6.478933712785910071e-02
4.363521721257631603e-01,1.700273663512670563e-02,-6.503984192755407623e-02
4.381933205313571222e-01,1.714142856781310925e-02,-6.529005808851472137e-02
4.400344689369510842e-01,1.728062115005363913e-02,-6.553998471750197008e-02
4.418756173425449907e-01,1.742031339673481144e-02,-6.578962092493377545e-02
4.437167657481389527e-01,1.756050431991360364e-02,-6.603896582489179878e-02
4.455579141537329146e-01,1.770119292883200884e-02,-6.628801853512809872e-02
4.473990625593267656e-01,1.784237822993159014e-02,-6.653677817707173703e-02
4.492402109649207276e-01,1.798405922686853800e-02,-6.678524387583543998e-02
4.510813593705146896e-01,1.812623492052726701e-02,-6.703341476022163514e-02
4.529225077761085960e-01,1.826890430903636842e-02,-6.728128996272918216e-02
4.547636561817025580e-01,1.841206638778265792e-02,-6.752886861955954834e-02
4.566048045872965200e-01,1.855572014942501527e-02,-6.777614987062263729e-02
4.584459529928904264e-01,1.869986458391063519e-02,-6.802313285954326993e-02
4.602871013984843884e-01,1.884449867848896412e-02,-6.826981673366698533e-02
4.621282498040783504e-01,1.898962141772641762e-02,-6.851620064406593880e-02
4.639693982096722014e-01,1.913523178352153145e-02,-6.876228374554464728e-02
4.658105466152661633e-01,1.928132875511904404e-02,-6.900806519664581806e-02
4.676516950208601253e-01,1.942791130912583514e-02,-6.925354415965601085e-02
4.694928434264540318e-01,1.957497841952475504e-02,-6.949871980061093912e-02
4.713339918320479938e-01,1.972252905769004624e-02,-6.974359128930124330e-02
4.731751402376419557e-01,1.987056219240219621e-02,-6.998815779927766711e-02
4.750162886432358622e-01,2.001907678986244998e-02,-7.023241850785631735e-02
4.768574370488298242e-01,2.016807181370837421e-02,-7.047637259612392346e-02
4.786985854544237862e-01,2.031754622502854324e-02,-7.072001924894301406e-02
4.805397338600176926e-01,2.046749898237735371e-02,-7.096335765495673242e-02
