# omega (a.u.), Re alpha(w), Im alpha(w)
0.000000000000000000e+00,0.000000000000000000e+00,0.000000000000000000e+00
1.841148405593937476e-03,-2.667280998917561317e-06,-5.848130787426328563e-05
3.682296811187874951e-03,-4.795948552919911711e-06,-1.169746622997118538e-04
5.523445216781813077e-03,-8.343400684647026412e-06,-1.754920497055037032e-04
7.364593622375749903e-03,-1.330917387412301658e-05,-2.340453910429346864e-04
9.205742027969688462e-03,-1.969251416475084564e-05,-2.926465419064282897e-04
1.104689043356362615e-02,-2.749230503886068716e-05,-3.513072926547481213e-04
1.288803883915756211e-02,-3.670781940773925825e-05,-4.100393685324321192e-04
1.472918724475149981e-02,-4.733812390220908296e-05,-4.688544297914473257e-04
1.657033565034543576e-02,-5.938124523000158129e-05,-5.277640718130612594e-04
1.841148405593937692e-02,-7.283630812213614158e-05,-5.867798252299328372e-04
2.025263246153331115e-02,-8.770188062758271612e-05,-6.459131560484140120e-04
2.209378086712725231e-02,-1.039756483802210205e-04,-7.051754657710702012e-04
2.393492927272118653e-02,-1.216559266603450015e-04,-7.645780915194085037e-04
2.577607767831512423e-02,-1.407418742981158925e-04,-8.241323061568187449e-04
2.761722608390906192e-02,-1.611975753762638814e-04,-8.838493184117221469e-04
2.945837448950299961e-02,-1.830866414094475022e-04,-9.437402730009271899e-04
3.129952289509693730e-02,-2.063757683848429375e-04,-1.003816250753189736e-03
3.314067130069087153e-02,-2.310602979492255675e-04,-1.064088268732981974e-03
3.498181970628481269e-02,-2.571366627609447436e-04,-1.124567280364458140e-03
3.682296811187875385e-02,-2.846057642473322517e-04,-1.185264175555623316e-03
3.866411651747268807e-02,-3.134643626834408489e-04,-1.246189780822703781e-03
4.050526492306662230e-02,-3.437088996356334279e-04,-1.307354859414708607e-03
4.234641332866055652e-02,-3.753369316839648266e-04,-1.368770111438196184e-03
4.418756173425450462e-02,-4.083454755559946564e-04,-1.430446173982228078e-03
4.602871013984843884e-02,-4.427312484889148561e-04,-1.492393621243518712e-03
4.786985854544237307e-02,-4.784920882764205825e-04,-1.554622964651775638e-03
4.971100695103631423e-02,-5.156235541006084881e-04,-1.617144652995231935e-03
5.155215535663024845e-02,-5.541236912212232782e-04,-1.679969072546364005e-03
5.339330376222418961e-02,-5.939922474306724145e-04,-1.743106547187795634e-03
5.523445216781812384e-02,-6.352192127396983799e-04,-1.806567338538390272e-03
5.707560057341206500e-02,-6.778005584403095068e-04,-1.870361646079523720e-03
5.891674897900599922e-02,-7.217410654945937169e-04,-1.934499607281543526e-03
6.075789738459993344e-02,-7.670337910748708382e-04,-1.998991297730399672e-03
6.259904579019387461e-02,-8.136744897117248552e-04,-2.063846731254464790e-03
6.444019419578780883e-02,-8.616581017322781557e-04,-2.129075860051525462e-03
6.628134260138174305e-02,-9.109816204431327950e-04,-2.194688574815951108e-03
6.812249100697569115e-02,-9.616475395772850236e-04,-2.260694704866033321e-03
6.996363941256962538e-02,-1.013634688284670597e-03,-2.327104018271504947e-03
7.180478781816355960e-02,-1.066962363901481073e-03,-2.393926221981225282e-03
7.364593622375750770e-02,-1.121601886270630734e-03,-2.461170961951034825e-03
7.548708462935142804e-02,-1.177542585876238754e-03,-2.528847823271778306e-03
7.732823303494537615e-02,-1.234823633787307919e-03,-2.596966330297501620e-03
7.916938144053932425e-02,-1.293421251383229664e-03,-2.665535946773795774e-03
8.101052984613324459e-02,-1.353320805786467369e-03,-2.734566075966322549e-03
8.285167825172719269e-02,-1.414531233649839615e-03,-2.804066060789498025e-03
8.469282665732111304e-02,-1.477033949221965127e-03,-2.874045183935322687e-03
8.653397506291506114e-02,-1.540838942527753431e-03,-2.944512668002394543e-03
8.837512346850900924e-02,-1.605924751583622054e-03,-3.015477675625048877e-03
9.021627187410292958e-02,-1.672308198470732424e-03,-3.086949309602685793e-03
9.205742027969687769e-02,-1.739960057417030579e-03,-3.158936613029234355e-03
9.389856868529081191e-02,-1.808893114818220038e-03,-3.231448569422756389e-03
9.573971709088474613e-02,-1.879100838571480352e-03,-3.304494102855237616e-03
9.758086549647869423e-02,-1.950584526650274170e-03,-3.378082078082497632e-03
9.942201390207262846e-02,-2.023321916083196947e-03,-3.452221300674252966e-03
1.012631623076665627e-01,-2.097306994574324110e-03,-3.526920517144340600e-03
1.031043107132604969e-01,-2.172565148461951066e-03,-3.602188415081069434e-03
1.049454591188544450e-01,-2.249050998785368481e-03,-3.678033623277733068e-03
1.067866075244483792e-01,-2.326786253548240088e-03,-3.754464711863242724e-03
1.086277559300423134e-01,-2.405763758477170392e-03,-3.831490192432920189e-03
1.104689043356362477e-01,-2.485971938015921895e-03,-3.909118518179419133e-03
1.123100527412301819e-01,-2.567414000156865040e-03,-3.987358084023791271e-03
1.141512011468241300e-01,-2.650079239177162947e-03,-4.066217226746676565e-03
1.159923495524180503e-01,-2.733950705427267563e-03,-4.145704225119640866e-03
1.178334979580119984e-01,-2.819045164365311350e-03,-4.225827300036640206e-03
1.196746463636059465e-01,-2.905328920650380575e-03,-4.306594614645614313e-03
1.215157947691998669e-01,-2.992834328825585890e-03,-4.388014274480217178e-03
1.233569431747938150e-01,-3.081487954611183879e-03,-4.470094327591672516e-03
1.251980915803877492e-01,-3.171394772028165044e-03,-4.552842764680741991e-03
1.270392399859816834e-01,-3.262429455628393371e-03,-4.636267519229858233e-03
1.288803883915756177e-01,-3.354682622645991080e-03,-4.720376467635334188e-03
1.307215367971695519e-01,-3.448120337577974086e-03,-4.805177429339720779e-03
1.325626852027634861e-01,-3.542696528834965962e-03,-4.890678166964292951e-03
1.344038336083574481e-01,-3.638478203758025754e-03,-4.976886386441632844e-03
1.362449820139513823e-01,-3.735367605452490514e-03,-5.063809737148337008e-03
1.380861304195453165e-01,-3.833422028885014564e-03,-5.151455812037869335e-03
1.399272788251392508e-01,-3.932639302572343842e-03,-5.239832147773473836e-03
1.417684272307331850e-01,-4.033017810593228676e-03,-5.328946224861259157e-03
1.436095756363271192e-01,-4.134466451446587414e-03,-5.418805467783349879e-03
1.454507240419210812e-01,-4.237089977619648735e-03,-5.509417245131177469e-03
1.472918724475150154e-01,-4.340818311300195451e-03,-5.600788869738867505e-03
1.491330208531089496e-01,-4.445672824467559667e-03,-5.692927598816719705e-03
1.509741692587028561e-01,-4.551632105557263351e-03,-5.785840634084849290e-03
1.528153176642968181e-01,-4.658709729700873103e-03,-5.879535121906870852e-03
1.546564660698907523e-01,-4.766875507834197716e-03,-5.974018153423694098e-03
1.564976144754846865e-01,-4.876140793781189378e-03,-6.069296764687473998e-03
1.583387628810786485e-01,-4.986480050312813543e-03,-6.165377936795595620e-03
1.601799112866725550e-01,-5.097921601190746541e-03,-6.262268596024807288e-03
1.620210596922664892e-01,-5.210427970830083105e-03,-6.359975613965419654e-03
1.638622080978604512e-01,-5.324003171888709758e-03,-6.458505807655611462e-03
1.657033565034543854e-01,-5.438627487468419494e-03,-6.557865939715835923e-03
1.675445049090483196e-01,-5.554369312967939731e-03,-6.658062718483312957e-03
1.693856533146422261e-01,-5.671078025556734216e-03,-6.759102798146621183e-03
1.712268017202361881e-01,-5.788868636923201645e-03,-6.860992778880370575e-03
1.730679501258301223e-01,-5.907678277562489894e-03,-6.963739206979951447e-03
1.749090985314240565e-01,-6.027566385785776415e-03,-7.067348574996424812e-03
1.767502469370180185e-01,-6.148413142910225462e-03,-7.171827321871423154e-03
1.785913953426119249e-01,-6.270317761063016505e-03,-7.277181833072196050e-03
1.804325437482058592e-01,-6.393241193186187561e-03,-7.383418440726719975e-03
1.822736921537998211e-01,-6.517156471623491640e-03,-7.490543423758862750e-03
1.841148405593937554e-01,-6.642078915216152908e-03,-7.598563008023673758e-03
1.859559889649876896e-01,-6.768024906126178519e-03,-7.707483366442736614e-03
1.877971373705816238e-01,-6.894943963507148797e-03,-7.817310619139566930e-03
1.896382857761755580e-01,-7.022771849032933937e-03,-7.928050833575143660e-03
1.914794341817694923e-01,-7.151658360813510987e-03,-8.039710024683462131e-03
1.933205825873634542e-01,-7.281486302927601614e-03,-8.152294155007209359e-03
1.951617309929573885e-01,-7.412274282410206278e-03,-8.265809134833443719e-03
1.970028793985512949e-01,-7.544002745556826518e-03,-8.380260822329430731e-03
1.988440278041452569e-01,-7.676718588007907899e-03,-8.495655023678489251e-03
2.006851762097391911e-01,-7.810343847298320021e-03,-8.611997493215896651e-03
2.025263246153331254e-01,-7.944907259271662484e-03,-8.729293933564911956e-03
2.043674730209270873e-01,-8.080374315795656529e-03,-8.847549995772837142e-03
2.062086214265209938e-01,-8.216819882022247112e-03,-8.966771279447106197e-03
2.080497698321149280e-01,-8.354172017564531413e-03,-9.086963332891511216e-03
2.098909182377088900e-01,-8.492411388762683561e-03,-9.208131653242423303e-03
2.117320666433028242e-01,-8.631540726892351911e-03,-9.330281686605096728e-03
2.135732150488967585e-01,-8.771645512798444122e-03,-9.453418828190049417e-03
2.154143634544906649e-01,-8.912514605082147434e-03,-9.577548422449462528e-03
2.172555118600846269e-01,-9.054324933416827217e-03,-9.702675763213680638e-03
2.190966602656785611e-01,-9.197017584775235219e-03,-9.828806093827703247e-03
2.209378086712724953e-01,-9.340591169556161297e-03,-9.955944607287802936e-03
2.227789570768664573e-01,-9.484958110083310454e-03,-1.008409644637813657e-02
2.246201054824603638e-01,-9.630227026078639133e-03,-1.021326670380742416e-02
2.264612538880542980e-01,-9.776337957955414174e-03,-1.034346042234570232e-02
2.283024022936482600e-01,-9.923271714737082888e-03,-1.047468259496107598e-02
2.301435506992421942e-01,-1.007115054548462368e-02,-1.060693816495654647e-02
2.319846991048361007e-01,-1.021970667533733841e-02,-1.074023202610689329e-02
2.338258475104300627e-01,-1.036914403108685385e-02,-1.087456902279556464e-02
2.356669959160239969e-01,-1.051936500402326537e-02,-1.100995395015164774e-02
2.375081443216179311e-01,-1.067052261497172284e-02,-1.114639155418684427e-02
2.393492927272118931e-01,-1.082231998093475915e-02,-1.128388653193250664e-02
2.411904411328058273e-01,-1.097496621502398739e-02,-1.142244353157670020e-02
2.430315895383997338e-01,-1.112839805331831793e-02,-1.156206715260133487e-02
2.448727379439936958e-01,-1.128260195915435984e-02,-1.170276194591926902e-02
2.467138863495876300e-01,-1.143760565524786985e-02,-1.184453241401149833e-02
2.485550347551815642e-01,-1.159339362292306948e-02,-1.198738301106435158e-02
2.503961831607754984e-01,-1.174986903213061720e-02,-1.213131814310675939e-02
2.522373315663694604e-01,-1.190727042076891035e-02,-1.227634216814747076e-02
2.540784799719633669e-01,-1.206527414046199703e-02,-1.242245939631237556e-02
2.559196283775573288e-01,-1.222383914745120946e-02,-1.256967408998183738e-02
2.577607767831512353e-01,-1.238333331766573210e-02,-1.271799046392797956e-02
2.596019251887451973e-01,-1.254354257236048494e-02,-1.286741268545216373e-02
2.614430735943391038e-01,-1.270444926326001756e-02,-1.301794487452225500e-02
2.632842219999330657e-01,-1.286605647802262740e-02,-1.316959110391013182e-02
2.651253704055269722e-01,-1.302837379488266424e-02,-1.332235539932908296e-02
2.669665188111209342e-01,-1.319155358687710763e-02,-1.347624173957127219e-02
2.688076672167148962e-01,-1.335503930644062372e-02,-1.363125405664521173e-02
2.706488156223088026e-01,-1.351944378647767717e-02,-1.378739623591321989e-02
2.724899640279027646e-01,-1.368466097600169219e-02,-1.394467211622897780e-02
2.743311124334966711e-01,-1.385021879483335806e-02,-1.410308549007500967e-02
2.761722608390906331e-01,-1.401665388443289716e-02,-1.426264010370023767e-02
2.780134092446845395e-01,-1.418371319241336879e-02,-1.442333965725747270e-02
2.798545576502785015e-01,-1.435130539676301477e-02,-1.458518780494105424e-02
2.816957060558724635e-01,-1.451962494382497137e-02,-1.474818815512431158e-02
2.835368544614663699e-01,-1.468857947278478376e-02,-1.491234427049721589e-02
2.853780028670603319e-01,-1.485831237624074021e-02,-1.507765966820390560e-02
2.872191512726542384e-01,-1.502849800780871846e-02,-1.524413781998024825e-02
2.890602996782482004e-01,-1.519912687515165804e-02,-1.541178215229151681e-02
2.909014480838421624e-01,-1.537049127268362569e-02,-1.558059604646984744e-02
2.927425964894360688e-01,-1.554247963730974631e-02,-1.575058283885191410e-02
2.945837448950300308e-01,-1.571510015336708907e-02,-1.592174582091650248e-02
2.964248933006239373e-01,-1.588826173708663553e-02,-1.609408823942205108e-02
2.982660417062178992e-01,-1.606213004544580769e-02,-1.626761329654428587e-02
3.001071901118118612e-01,-1.623616268306631721e-02,-1.644232415001377345e-02
3.019483385174057122e-01,-1.641128145688907844e-02,-1.661822391325346732e-02
3.037894869229996742e-01,-1.658652028290699687e-02,-1.679531565551635811e-02
3.056306353285936361e-01,-1.676245747419573273e-02,-1.697360240202292619e-02
3.074717837341875426e-01,-1.693894276323281919e-02,-1.715308713409876423e-02
3.093129321397815046e-01,-1.711606943909322123e-02,-1.733377278931208521e-02
3.111540805453754666e-01,-1.729350658687628037e-02,-1.751566226161127560e-02
3.129952289509693730e-01,-1.747180069930493601e-02,-1.769875840146237916e-02
3.148363773565633350e-01,-1.765014612149198164e-02,-1.788306401598664663e-02
3.166775257621572970e-01,-1.782943652715515692e-02,-1.806858186909796049e-02
3.185186741677511479e-01,-1.800874289581217563e-02,-1.825531468164032570e-02
3.203598225733451099e-01,-1.818881447893912207e-02,-1.844326513152539856e-02
3.222009709789390719e-01,-1.836934493301634053e-02,-1.863243585386980053e-02
3.240421193845329784e-01,-1.855041882910988052e-02,-1.882282944113261580e-02
3.258832677901269403e-01,-1.873179092793344352e-02,-1.901444844325274330e-02
3.277244161957209023e-01,-1.891370002493717589e-02,-1.920729536778632840e-02
3.295655646013148088e-01,-1.909605289557570612e-02,-1.940137268004398646e-02
3.314067130069087708e-01,-1.927914202772341642e-02,-1.959668280322829012e-02
3.332478614125026772e-01,-1.946239775727420449e-02,-1.979322811857094078e-02
3.350890098180966392e-01,-1.964584036842686315e-02,-1.999101096547008238e-02
3.369301582236906012e-01,-1.982991776276498211e-02,-2.019003364162756664e-02
3.387713066292844521e-01,-2.001451443723031853e-02,-2.039029840318609330e-02
3.406124550348784141e-01,-2.019936733049904412e-02,-2.059180746486651004e-02
3.424536034404723761e-01,-2.038471063161419877e-02,-2.079456300010483483e-02
3.442947518460662826e-01,-2.057043346201820402e-02,-2.099856714118945172e-02
3.461359002516602446e-01,-2.075674887916712993e-02,-2.120382197939815055e-02
3.479770486572542065e-01,-2.094288632098334837e-02,-2.141032956513523947e-02
3.498181970628481130e-01,-2.112981337745990437e-02,-2.161809190806846318e-02
3.516593454684420750e-01,-2.131710381146787944e-02,-2.182711097726608429e-02
3.535004938740360370e-01,-2.150469872874900129e-02,-2.203738870133368014e-02
3.553416422796298879e-01,-2.169260802658108320e-02,-2.224892696855118243e-02
3.571827906852238499e-01,-2.188090979343130724e-02,-2.246172762700963943e-02
3.590239390908178119e-01,-2.206948782825182698e-02,-2.267579248474804396e-02
3.608650874964117183e-01,-2.225865140003071771e-02,-2.289112330989009209e-02
3.627062359020056803e-01,-2.244754356213516516e-02,-2.310772183078097300e-02
3.645473843075996423e-01,-2.263748091290459369e-02,-2.332558973612393685e-02
3.663885327131935488e-01,-2.282735823515123080e-02,-2.354472867511701178e-02
3.682296811187875107e-01,-2.301735629985135825e-02,-2.376514025758953014e-02
3.700708295243814727e-01,-2.320773298882578342e-02,-2.398682605413873445e-02
3.719119779299753792e-01,-2.339849171359221353e-02,-2.420978759626614754e-02
3.737531263355692857e-01,-2.358952484030709534e-02,-2.443402637651410220e-02
3.755942747411632476e-01,-2.378079858512355607e-02,-2.465954384860209736e-02
3.774354231467571541e-01,-2.397239403237436117e-02,-2.488634142756307802e-02
3.792765715523511161e-01,-2.416447147597185555e-02,-2.511442048987973588e-02
3.811177199579450781e-01,-2.435622763561854504e-02,-2.534378237362076153e-02
3.829588683635389845e-01,-2.454857810503872917e-02,-2.557442837857689180e-02
3.848000167691329465e-01,-2.474112417303455519e-02,-2.580635976639718276e-02
3.866411651747269085e-01,-2.493403259947156100e-02,-2.603957776072486283e-02
3.884823135803208149e-01,-2.512697629887604076e-02,-2.627408354733338711e-02
3.903234619859147769e-01,-2.532011875831497935e-02,-2.650987827426242935e-02
3.921646103915087389e-01,-2.551358162055079176e-02,-2.674696305195362750e-02
3.940057587971025899e-01,-2.570743315983825550e-02,-2.698533895338640562e-02
3.958469072026965518e-01,-2.590090499998938880e-02,-2.722500701421373681e-02
3.976880556082905138e-01,-2.609524046824332130e-02,-2.746596823289778819e-02
3.995292040138844203e-01,-2.628919054017985965e-02,-2.770822357084545828e-02
4.013703524194783823e-01,-2.648364430158674232e-02,-2.795177395254398733e-02
4.032115008250723442e-01,-2.667804264240285564e-02,-2.819662026569635938e-02
4.050526492306662507e-01,-2.687271086599833311e-02,-2.844276336135672864e-02
4.068937976362602127e-01,-2.706745555203846076e-02,-2.869020405406566207e-02
4.087349460418541747e-01,-2.726280710708476468e-02,-2.893894312198549285e-02
4.105760944474480256e-01,-2.745743724681875761e-02,-2.918898130703535473e-02
4.124172428530419876e-01,-2.765313984965666813e-02,-2.944031931502645930e-02
4.142583912586359496e-01,-2.784812242108193614e-02,-2.969295781579688043e-02
4.160995396642298561e-01,-2.804364010261839804e-02,-2.994689744334669279e-02
4.179406880698238180e-01,-2.823948315975587098e-02,-3.020213879597278758e-02
4.197818364754177800e-01,-2.843486567220789366e-02,-3.045868243640358769e-02
4.216229848810116865e-01,-2.863061905953006789e-02,-3.071652889193382530e-02
4.234641332866056485e-01,-2.882649855842816730e-02,-3.097567865455916336e-02
4.253052816921995549e-01,-2.902243228538538278e-02,-3.123613218111073037e-02
4.271464300977935169e-01,-2.921840859270470603e-02,-3.149788989338956485e-02
4.289875785033874234e-01,-2.941455987543496048e-02,-3.176095217830097323e-02
4.308287269089813298e-01,-2.961068925844730429e-02,-3.202531938798892919e-02
4.326698753145752918e-01,-2.980681787188103199e-02,-3.229099183997017480e-02
4.345110237201692538e-01,-3.000306213934900851e-02,-3.255796981726836320e-02
4.363521721257631603e-01,-3.019930134428060187e-02,-3.282625356854811799e-02
4.381933205313571222e-01,-3.039593011155011446e-02,-3.309584330824894005e-02
4.400344689369510842e-01,-3.059165994005637670e-02,-3.336673921671911430e-02
4.418756173425449907e-01,-3.078804740690381861e-02,-3.363894144034942912e-02
4.437167657481389527e-01,-3.098495280766788360e-02,-3.391245009170685415e-02
4.455579141537329146e-01,-3.118079359342490475e-02,-3.418726524966812785e-02
4.473990625593267656e-01,-3.137732374590251894e-02,-3.446338695955317860e-02
4.492402109649207276e-01,-3.157383922694347728e-02,-3.474081523325869142e-02
4.510813593705146896e-01,-3.176998492252632034e-02,-3.501955004939118210e-02
4.529225077761085960e-01,-3.196628358108982715e-02,-3.529959135340030724e-02
4.547636561817025580e-01,-3.216250164571431841e-02,-3.558093905771197302e-02
4.566048045872965200e-01,-3.235914391971528997e-02,-3.586359304186129138e-02
4.584459529928904264e-01,-3.255533168283696044e-02,-3.614755315262549451e-02
4.602871013984843884e-01,-3.275120375807211853e-02,-3.643281920415672448e-02
4.621282498040783504e-01,-3.294714601968981582e-02,-3.671939097811473263e-02
4.639693982096722014e-01,-3.314330109790118023e-02,-3.700726822379948183e-02
4.658105466152661633e-01,-3.333909710433519136e-02,-3.729645065828367939e-02
4.676516950208601253e-01,-3.353499535622431194e-02,-3.758693796654506702e-02
4.694928434264540318e-01,-3.373074767556544229e-02,-3.787872980159875946e-02
4.713339918320479938e-01,-3.392683880966974180e-02,-3.817182578462934711e-02
4.731751402376419557e-01,-3.412181062353990962e-02,-3.846622550512315136e-02
4.750162886432358622e-01,-3.431747931144207148e-02,-3.876192852099991787e-02
