# omega (a.u.), Re alpha(w), Im alpha(w)
0.000000000000000000e+00,4.791457477646746245e-17,0.000000000000000000e+00
1.841148405593937346e-02,6.732200343058927165e-05,-3.186303745619773961e-03
3.682296811187874691e-02,2.690944248182302852e-04,-6.366835164828827179e-03
5.523445216781812384e-02,6.047376976481812433e-04,-9.535853263652827386e-03
7.364593622375749382e-02,1.073289865437175106e-03,-1.268767936965679681e-02
9.205742027969686381e-02,1.673412518190719057e-03,-1.581672744069271067e-02
1.104689043356362477e-01,2.403399014002437304e-03,-1.891753336871794186e-02
1.288803883915756177e-01,3.261184898133257740e-03,-2.198478297235333806e-02
1.472918724475149876e-01,4.244360409356348271e-03,-2.501333839538855477e-02
1.657033565034543576e-01,5.350184942588620887e-03,-2.799826265664551173e-02
1.841148405593937276e-01,6.575603318167418804e-03,-3.093484212873232053e-02
2.025263246153330976e-01,7.917263691831103595e-03,-3.381860675843031266e-02
2.209378086712724953e-01,9.371536925736698859e-03,-3.664534787887228223e-02
2.393492927272118653e-01,1.093453722985060494e-02,-3.941113350237958335e-02
2.577607767831512353e-01,1.260214387487706457e-02,-4.211232102192801613e-02
2.761722608390905775e-01,1.437002377258028360e-02,-4.474556728783572745e-02
2.945837448950299753e-01,1.623365471689463407e-02,-4.730783606360308008e-02
3.129952289509693730e-01,1.818834907952626354e-02,-4.979640290015132503e-02
3.314067130069087153e-01,2.022927775671130163e-02,-5.220885750037721623e-02
3.498181970628481130e-01,2.235149416924378865e-02,-5.454310367544004667e-02
3.682296811187874552e-01,2.454995812561042504e-02,-5.679735702012568554e-02
3.866411651747268530e-01,2.681955936783931432e-02,-5.897014045670651711e-02
4.050526492306661952e-01,2.915514063122182434e-02,-6.106027781477217642e-02
4.234641332866055929e-01,3.155152006212019050e-02,-6.306688562849820101e-02
4.418756173425449907e-01,3.400351285234372301e-02,-6.498936334279503679e-02
4.602871013984843329e-01,3.650595196376891366e-02,-6.682738212589277305e-02
4.786985854544237307e-01,3.905370783270743079e-02,-6.858087248838558303e-02
4.971100695103630174e-01,4.164170695970825786e-02,-7.025001090787741376e-02
5.155215535663024706e-01,4.426494930675879680e-02,-7.183520565447340522e-02
5.339330376222417573e-01,4.691852443996800265e-02,-7.333708200582132741e-02
5.523445216781811551e-01,4.959762637156131526e-02,-7.475646703161692441e-02
5.707560057341205528e-01,5.229756707018307083e-02,-7.609437411684367991e-02
5.891674897900599506e-01,5.501378862292595484e-02,-7.735198738091747517e-02
6.075789738459992373e-01,5.774187404603253748e-02,-7.853064613672625094e-02
6.259904579019387461e-01,6.047755675374125867e-02,-7.963182951965526446e-02
6.444019419578780328e-01,6.321672870617020545e-02,-8.065714140239393926e-02
6.628134260138174305e-01,6.595544726740844299e-02,-8.160829569693167640e-02
6.812249100697567172e-01,6.868994081405536967e-02,-8.248710213092032284e-02
6.996363941256962260e-01,7.141661314231959046e-02,-8.329545257173827377e-02
7.180478781816355127e-01,7.413204672845633003e-02,-8.403530795831681832e-02
7.364593622375749105e-01,7.683300490281579076e-02,-8.470868588823275702e-02
7.548708462935143082e-01,7.951643300213448451e-02,-8.531764889584611544e-02
7.732823303494537059e-01,8.217945856798385129e-02,-8.586429344645087058e-02
7.916938144053929927e-01,8.481939066156099494e-02,-8.635073966155949743e-02
8.101052984613323904e-01,8.743371836633401228e-02,-8.677912178159036261e-02
8.285167825172717881e-01,9.002010855052906824e-02,-8.715157936437017971e-02
8.469282665732111859e-01,9.257640296114333367e-02,-8.747024921099108563e-02
8.653397506291504726e-01,9.510061472017386497e-02,-8.773725800463920421e-02
8.837512346850899814e-01,9.759092429215995845e-02,-8.795471564300091916e-02
9.021627187410292681e-01,1.000456749900211634e-01,-8.812470924069615297e-02
9.205742027969686658e-01,1.024633680836238570e-01,-8.824929777483050963e-02
9.389856868529079525e-01,1.048426575726001259e-01,-8.833050734413239180e-02
9.573971709088474613e-01,1.071823446817509323e-01,-8.837032701018240899e-02
9.758086549647867480e-01,1.094813721339557289e-01,-8.837070518788227302e-02
9.942201390207260348e-01,1.117388182519527678e-01,-8.833354655148246970e-02
1.012631623076665432e+00,1.139538909366965280e-01,-8.826070942212678461e-02
1.031043107132604941e+00,1.161259215663020261e-01,-8.815400360291565651e-02
1.049454591188544228e+00,1.182543588558893771e-01,-8.801518862787910402e-02
1.067866075244483515e+00,1.203387627149876543e-01,-8.784597239193131513e-02
1.086277559300423023e+00,1.223787981355798360e-01,-8.764801012979822614e-02
1.104689043356362310e+00,1.243742291403977518e-01,-8.742290371302492702e-02
1.123100527412301597e+00,1.263249128177326985e-01,-8.717220123543578669e-02
1.141512011468241106e+00,1.282307934658288018e-01,-8.689739685880229492e-02
1.159923495524180392e+00,1.300918968668957620e-01,-8.659993089193677995e-02
1.178334979580119901e+00,1.319083247079133048e-01,-8.628119007794710082e-02
1.196746463636059188e+00,1.336802491627220035e-01,-8.594250806593245473e-02
1.215157947691998475e+00,1.354079076473980181e-01,-8.558516604495054747e-02
1.233569431747937761e+00,1.370915977585998313e-01,-8.521039351962905739e-02
1.251980915803877492e+00,1.387316724024524606e-01,-8.481936920830478177e-02
1.270392399859816779e+00,1.403285351195894537e-01,-8.441322204605192225e-02
1.288803883915756066e+00,1.418826356102132480e-01,-8.399303227638607594e-02
1.307215367971695352e+00,1.433944654614372483e-01,-8.355983261680163809e-02
1.325626852027634861e+00,1.448645540777515339e-01,-8.311460948460973330e-02
1.344038336083574148e+00,1.462934648141787086e-01,-8.265830427078658948e-02
1.362449820139513434e+00,1.476817913105694657e-01,-8.219181465071727366e-02
1.380861304195453165e+00,1.490301540245024259e-01,-8.171599592182494931e-02
1.399272788251392452e+00,1.503391969594055078e-01,-8.123166235911101485e-02
1.417684272307331739e+00,1.516095845837835132e-01,-8.073958858059686328e-02
1.436095756363271025e+00,1.528419989368230425e-01,-8.024051091555417514e-02
1.454507240419210312e+00,1.540371369151289915e-01,-7.973512876924353232e-02
1.472918724475149821e+00,1.551957077349310488e-01,-7.922410597864411319e-02
1.491330208531089108e+00,1.563184305637624616e-01,-7.870807215436412263e-02
1.509741692587028616e+00,1.574060323153605168e-01,-7.818762400456598372e-02
1.528153176642967903e+00,1.584592456013501627e-01,-7.766332663732931907e-02
1.546564660698907412e+00,1.594788068331509934e-01,-7.713571483841119569e-02
1.564976144754846699e+00,1.604654544674793681e-01,-7.660529432185157750e-02
1.583387628810785985e+00,1.614199273887989006e-01,-7.607254295130870536e-02
1.601799112866725272e+00,1.623429634220971973e-01,-7.553791193040879093e-02
1.620210596922664781e+00,1.632352979694284556e-01,-7.500182696074916833e-02
1.638622080978604290e+00,1.640976627637551477e-01,-7.446468936651227943e-02
1.657033565034543576e+00,1.649307847337439514e-01,-7.392687718493327897e-02
1.675445049090482863e+00,1.657353849733138595e-01,-7.338874622211485899e-02
1.693856533146422372e+00,1.665121778099010741e-01,-7.285063107390676862e-02
1.712268017202361658e+00,1.672618699655802066e-01,-7.231284611176297394e-02
1.730679501258300945e+00,1.679851598053767048e-01,-7.177568643366144530e-02
1.749090985314240232e+00,1.686827366673037121e-01,-7.123942878032066273e-02
1.767502469370179963e+00,1.693552802688662595e-01,-7.070433241707588246e-02
1.785913953426119249e+00,1.700034601849872429e-01,-7.017063998188950713e-02
1.804325437482058536e+00,1.706279353925259090e-01,-6.963857830006359162e-02
1.822736921537997823e+00,1.712293538767755141e-01,-6.910835916630178599e-02
1.841148405593937332e+00,1.718083522955423936e-01,-6.858018009483486666e-02
1.859559889649876618e+00,1.723655556966247338e-01,-6.805422503837622872e-02
1.877971373705815905e+00,1.729015772847165289e-01,-6.753066507671856566e-02
1.896382857761755192e+00,1.734170182339737909e-01,-6.700965907581590830e-02
1.914794341817694923e+00,1.739124675426802769e-01,-6.649135431822020270e-02
1.933205825873634209e+00,1.743885019266470660e-01,-6.597588710575982840e-02
1.951617309929573496e+00,1.748456857481727189e-01,-6.546338333535860199e-02
1.970028793985512783e+00,1.752845709775761596e-01,-6.495395904889887662e-02
1.988440278041452070e+00,1.757056971844912496e-01,-6.444772095803293077e-02
2.006851762097391578e+00,1.761095915562869152e-01,-6.394476694484324542e-02
2.025263246153330865e+00,1.764967689411374441e-01,-6.344518653924416385e-02
2.043674730209270596e+00,1.768677319134302761e-01,-6.294906137400600732e-02
2.062086214265209883e+00,1.772229708593453523e-01,-6.245646561827036120e-02
2.080497698321149169e+00,1.775629640805867770e-01,-6.196746639040821847e-02
2.098909182377088456e+00,1.778881779143823838e-01,-6.148212415105483442e-02
2.117320666433027743e+00,1.781990668679990508e-01,-6.100049307713611979e-02
2.135732150488967029e+00,1.784960737661427099e-01,-6.052262141768073589e-02
2.154143634544906316e+00,1.787796299097313413e-01,-6.004855183218969772e-02
2.172555118600846047e+00,1.790501552446368827e-01,-5.957832171231348256e-02
2.190966602656785334e+00,1.793080585390992576e-01,-5.911196348756347918e-02
2.209378086712724620e+00,1.795537375686116488e-01,-5.864950491576114561e-02
2.227789570768663907e+00,1.797875793071702644e-01,-5.819096935890485933e-02
2.246201054824603194e+00,1.800099601238685787e-01,-5.773637604511090010e-02
2.264612538880542925e+00,1.802212459838968828e-01,-5.728574031726135080e-02
2.283024022936482211e+00,1.804217926530867211e-01,-5.683907386896860231e-02
2.301435506992421498e+00,1.806119459052090426e-01,-5.639638496844292387e-02
2.319846991048360785e+00,1.807920417313051142e-01,-5.595767867082699493e-02
2.338258475104300516e+00,1.809624065503889490e-01,-5.552295701953887525e-02
2.356669959160239802e+00,1.811233574209217823e-01,-5.509221923714339997e-02
2.375081443216179089e+00,1.812752022525111750e-01,-5.466546190624992779e-02
2.393492927272118376e+00,1.814182400173408871e-01,-5.424267914091464304e-02
2.411904411328057662e+00,1.815527609608821868e-01,-5.382386274900437251e-02
2.430315895383996949e+00,1.816790468114848067e-01,-5.340900238595998328e-02
2.448727379439936236e+00,1.817973709884831701e-01,-5.299808570037804062e-02
2.467138863495875523e+00,1.819079988084946475e-01,-5.259109847181096115e-02
2.485550347551814809e+00,1.820111876896194358e-01,-5.218802474116857049e-02
2.503961831607754984e+00,1.821071873532855434e-01,-5.178884693408596779e-02
2.522373315663694271e+00,1.821962400235121182e-01,-5.139354597760705662e-02
2.540784799719633558e+00,1.822785806233918338e-01,-5.100210141051609442e-02
2.559196283775572844e+00,1.823544369686190270e-01,-5.061449148763525613e-02
2.577607767831512131e+00,1.824240299579137359e-01,-5.023069327839071313e-02
2.596019251887451418e+00,1.824875737602131009e-01,-4.985068275993594089e-02
2.614430735943390705e+00,1.825452759985231044e-01,-4.947443490510752134e-02
2.632842219999330435e+00,1.825973379303382771e-01,-4.910192376547494603e-02
2.651253704055269722e+00,1.826439546245582357e-01,-4.873312254973455326e-02
2.669665188111209009e+00,1.826853151348425131e-01,-4.836800369768470831e-02
2.688076672167148296e+00,1.827216026693576634e-01,-4.800653895000861482e-02
2.706488156223087582e+00,1.827529947568886093e-01,-4.764869941408005072e-02
2.724899640279026869e+00,1.827796634092903327e-01,-4.729445562599639968e-02
2.743311124334966156e+00,1.828017752802739426e-01,-4.694377760903409996e-02
2.761722608390906331e+00,1.828194918205244823e-01,-4.659663492871154999e-02
2.780134092446845617e+00,1.828329694291603580e-01,-4.625299674463576732e-02
2.798545576502784904e+00,1.828423596015499863e-01,-4.591283185929973670e-02
2.816957060558724191e+00,1.828478090735088935e-01,-4.557610876399033339e-02
2.835368544614663477e+00,1.828494599619060468e-01,-4.524279568195718748e-02
2.853780028670602764e+00,1.828474499017145871e-01,-4.491286060898692228e-02
2.872191512726542051e+00,1.828419121795462898e-01,-4.458627135151884552e-02
2.890602996782481338e+00,1.828329758637130265e-01,-4.426299556243178807e-02
2.909014480838420624e+00,1.828207659308638544e-01,-4.394300077462548471e-02
2.927425964894359911e+00,1.828054033892470842e-01,-4.362625443251321594e-02
2.945837448950299642e+00,1.827870053986522525e-01,-4.331272392153685813e-02
2.964248933006238929e+00,1.827656853870877618e-01,-4.300237659580978533e-02
2.982660417062178215e+00,1.827415531642511692e-01,-4.269517980398777196e-02
3.001071901118117502e+00,1.827147150318536029e-01,-4.239110091346273701e-02
3.019483385174057233e+00,1.826852738908585072e-01,-4.209010733296966733e-02
3.037894869229996520e+00,1.826533293456968909e-01,-4.179216653369238060e-02
3.056306353285935806e+00,1.826189778055226087e-01,-4.149724606894889672e-02
3.074717837341875537e+00,1.825823125825714877e-01,-4.120531359253419568e-02
3.093129321397814824e+00,1.825434239876879694e-01,-4.091633687579271372e-02
3.111540805453754110e+00,1.825023994230842994e-01,-4.063028382349054973e-02
3.129952289509693397e+00,1.824593234723955459e-01,-4.034712248855267663e-02
3.148363773565632684e+00,1.824142779880963405e-01,-4.006682108572804518e-02
3.166775257621571971e+00,1.823673421763414015e-01,-3.978934800424126922e-02
3.185186741677511257e+00,1.823185926792952605e-01,-3.951467181948742358e-02
3.203598225733450544e+00,1.822681036550126699e-01,-3.924276130382308575e-02
3.222009709789389831e+00,1.822159468549337802e-01,-3.897358543650378260e-02
3.240421193845329562e+00,1.821621916990540380e-01,-3.870711341281619228e-02
3.258832677901268848e+00,1.821069053488318379e-01,-3.844331465245007240e-02
3.277244161957208579e+00,1.820501527778923267e-01,-3.818215880715325472e-02
3.295655646013147866e+00,1.819919968405875610e-01,-3.792361576770990339e-02
3.314067130069087153e+00,1.819324983384715266e-01,-3.766765567028154682e-02
3.332478614125026439e+00,1.818717160847465319e-01,-3.741424890214661153e-02
3.350890098180965726e+00,1.818097069667380106e-01,-3.716336610687384634e-02
3.369301582236905013e+00,1.817465260064528576e-01,-3.691497818896197908e-02
3.387713066292844744e+00,1.816822264192747560e-01,-3.666905631797729576e-02
3.406124550348784030e+00,1.816168596708506722e-01,-3.642557193221819534e-02
3.424536034404723317e+00,1.815504755322198405e-01,-3.618449674193491283e-02
3.442947518460662604e+00,1.814831221332353917e-01,-3.594580273213097282e-02
3.461359002516601890e+00,1.814148460143298613e-01,-3.570946216497126319e-02
3.479770486572541177e+00,1.813456921766717356e-01,-3.547544758182061275e-02
3.498181970628480464e+00,1.812757041307607453e-01,-3.524373180493544505e-02
3.516593454684419751e+00,1.812049239435085668e-01,-3.501428793882956775e-02
3.535004938740359925e+00,1.811333922838495314e-01,-3.478708937133450502e-02
3.553416422796299212e+00,1.810611484669255034e-01,-3.456210977437357279e-02
3.571827906852238499e+00,1.809882304968881417e-01,-3.433932310446719677e-02
3.590239390908177786e+00,1.809146751083590687e-01,-3.411870360298743104e-02
3.608650874964117072e+00,1.808405178065906893e-01,-3.390022579617708171e-02
3.627062359020056359e+00,1.807657929063648805e-01,-3.368386449494924217e-02
3.645473843075995646e+00,1.806905335696699089e-01,-3.346959479448167324e-02
3.663885327131934933e+00,1.806147718421919068e-01,-3.325739207361933653e-02
3.682296811187874663e+00,1.805385386886580179e-01,-3.304723199409876494e-02
3.700708295243813950e+00,1.804618640270660157e-01,-3.283909049960580251e-02
3.719119779299753237e+00,1.803847767618356190e-01,-3.263294381467878036e-02
3.737531263355692523e+00,1.803073048159140324e-01,-3.242876844346784249e-02
3.755942747411631810e+00,1.802294751618686020e-01,-3.222654116836109334e-02
3.774354231467571097e+00,1.801513138519987289e-01,-3.202623904848672654e-02
3.792765715523510384e+00,1.800728460474964043e-01,-3.182783941810123085e-02
3.811177199579450559e+00,1.799940960466862305e-01,-3.163131988487166008e-02
3.829588683635389845e+00,1.799150873123734340e-01,-3.143665832806067512e-02
3.848000167691329132e+00,1.798358424983270698e-01,-3.124383289662184537e-02
3.866411651747268419e+00,1.797563834749277278e-01,-3.105282200721288036e-02
3.884823135803207705e+00,1.796767313540028888e-01,-3.086360434213339735e-02
3.903234619859146992e+00,1.795969065128789899e-01,-3.067615884719401137e-02
3.921646103915086279e+00,1.795169286176721835e-01,-3.049046472952278083e-02
3.940057587971025566e+00,1.794368166458433778e-01,-3.030650145531489995e-02
3.958469072026964852e+00,1.793565889080400988e-01,-3.012424874753114393e-02
3.976880556082904139e+00,1.792762630692487369e-01,-2.994368658355002835e-02
3.995292040138843870e+00,1.791958561692775231e-01,-2.976479519277894920e-02
4.013703524194783157e+00,1.791153846425929119e-01,-2.958755505422845655e-02
4.032115008250721999e+00,1.790348643375292981e-01,-2.941194689405423127e-02
4.050526492306661730e+00,1.789543105348916918e-01,-2.923795168307081332e-02
4.068937976362601461e+00,1.788737379659712523e-01,-2.906555063424073534e-02
4.087349460418541192e+00,1.787931608299922481e-01,-2.889472520014287754e-02
4.105760944474480034e+00,1.787125928110079032e-01,-2.872545707042322913e-02
4.124172428530419765e+00,1.786320470942635852e-01,-2.855772816923123070e-02
4.142583912586358608e+00,1.785515363820437129e-01,-2.839152065264489294e-02
4.160995396642298338e+00,1.784710729090191184e-01,-2.822681690608707869e-02
4.179406880698237181e+00,1.783906684571104628e-01,-2.806359954173601526e-02
4.197818364754176912e+00,1.783103343698837495e-01,-2.790185139593206326e-02
4.216229848810116643e+00,1.782300815664917826e-01,-2.774155552658331969e-02
4.234641332866055485e+00,1.781499205551775045e-01,-2.758269521057211959e-02
4.253052816921995216e+00,1.780698614463517293e-01,-2.742525394116427859e-02
4.271464300977934059e+00,1.779899139652600659e-01,-2.726921542542327243e-02
4.289875785033873790e+00,1.779100874642509655e-01,-2.711456358163070318e-02
4.308287269089812632e+00,1.778303909346587164e-01,-2.696128253671502967e-02
4.326698753145752363e+00,1.777508330183129315e-01,-2.680935662368981454e-02
4.345110237201692094e+00,1.776714220186865201e-01,-2.665877037910304934e-02
4.363521721257631825e+00,1.775921659116942442e-01,-2.650950854049881691e-02
4.381933205313570667e+00,1.775130723561518520e-01,-2.636155604389239793e-02
4.400344689369510398e+00,1.774341487039080012e-01,-2.621489802126016067e-02
4.418756173425449241e+00,1.773554020096581030e-01,-2.606951979804507033e-02
4.437167657481388972e+00,1.772768390404510508e-01,-2.592540689067884818e-02
4.455579141537327814e+00,1.771984662848983261e-01,-2.578254500412166528e-02
4.473990625593267545e+00,1.771202899620946403e-01,-2.564092002942016876e-02
4.492402109649206388e+00,1.770423160302601051e-01,-2.550051804128460400e-02
4.510813593705146118e+00,1.769645501951117861e-01,-2.536132529568563623e-02
4.529225077761085849e+00,1.768869979179736873e-01,-2.522332822747158296e-02
4.547636561817024692e+00,1.768096644236340220e-01,-2.508651344800657754e-02
4.566048045872964423e+00,1.767325547079564851e-01,-2.495086774283009068e-02
4.584459529928904153e+00,1.766556735452545490e-01,-2.481637806933844823e-02
4.602871013984842996e+00,1.765790254954358318e-01,-2.468303155448859157e-02
4.621282498040782727e+00,1.765026149109233944e-01,-2.455081549252444845e-02
4.639693982096721570e+00,1.764264459433619314e-01,-2.441971734272641026e-02
4.658105466152661300e+00,1.763505225501148244e-01,-2.428972472718397141e-02
4.676516950208601031e+00,1.762748485005589949e-01,-2.416082542859191926e-02
4.694928434264539874e+00,1.761994273821843038e-01,-2.403300738807025161e-02
4.713339918320479605e+00,1.761242626065026295e-01,-2.390625870300791544e-02
4.731751402376419335e+00,1.760493574147741214e-01,-2.378056762493076931e-02
4.750162886432358178e+00,1.759747148835547614e-01,-2.365592255739349184e-02
4.768574370488297909e+00,1.759003379300725090e-01,-2.353231205389590477e-02
4.786985854544236751e+00,1.758262293174355506e-01,-2.340972481582350231e-02
4.805397338600176482e+00,1.757523916596800961e-01,-2.328814969041236721e-02
