# omega (a.u.), Re alpha(w), Im alpha(w)
0.000000000000000000e+00,0.000000000000000000e+00,0.000000000000000000e+00
2.945837448950299961e-02,-3.787898605240560190e-04,-9.784116278394345157e-04
5.891674897900599922e-02,-1.486223984042097214e-03,-2.135343318816184006e-03
8.837512346850900924e-02,-3.253397590047921867e-03,-3.622936125619691076e-03
1.178334979580119984e-01,-5.588449990741207497e-03,-5.565721274786082813e-03
1.472918724475150154e-01,-8.384768563757388771e-03,-8.062051253349196422e-03
1.767502469370180185e-01,-1.152728702408024365e-02,-1.118566892495312382e-02
2.062086214265209938e-01,-1.489654009192499691e-02,-1.498738976932994550e-02
2.356669959160239969e-01,-1.837233293751871013e-02,-1.949687271513164330e-02
2.651253704055269722e-01,-2.183676471690276094e-02,-2.472445566603272485e-02
2.945837448950300308e-01,-2.517619086131947514e-02,-3.066303268158060771e-02
3.240421193845329784e-01,-2.828338843962641472e-02,-3.728995084351712647e-02
3.535004938740360370e-01,-3.105920504348088848e-02,-4.456890608996599834e-02
3.829588683635389845e-01,-3.341312163770677329e-02,-5.245181870782184702e-02
4.124172428530419876e-01,-3.526468902090749979e-02,-6.088067071125030649e-02
4.418756173425449907e-01,-3.654429168643654607e-02,-6.978928897468841819e-02
4.713339918320479938e-01,-3.719215424618842192e-02,-7.910505970567989487e-02
5.007923663215509968e-01,-3.716104875844793154e-02,-8.875056161048121284e-02
5.302507408110539444e-01,-3.641305095474226677e-02,-9.864510689877430127e-02
5.597091153005570030e-01,-3.492288216658583078e-02,-1.087061810693963904e-01
5.891674897900600616e-01,-3.267413148967261011e-02,-1.188507741946094737e-01
6.186258642795630092e-01,-2.966166862694784995e-02,-1.289965981556412677e-01
6.480842387690659567e-01,-2.588913784096915499e-02,-1.390631859584680885e-01
6.775426132585689043e-01,-2.136917928651853663e-02,-1.489728708595157991e-01
7.070009877480720739e-01,-1.612347090847012290e-02,-1.586516445416787935e-01
7.364593622375750215e-01,-1.018043620729180802e-02,-1.680298949895037697e-01
7.659177367270779691e-01,-3.574626235710373114e-03,-1.770430260084656648e-01
7.953761112165810276e-01,3.652180505846827629e-03,-1.856319615090522290e-01
8.248344857060839752e-01,1.145495979195088575e-02,-1.937435387261098596e-01
8.542928601955870338e-01,1.978256544192195238e-02,-2.013307954638699215e-01
8.837512346850899814e-01,2.858291536661673737e-02,-2.083531572455525616e-01
9.132096091745930400e-01,3.779822005506935229e-02,-2.147765309035686576e-01
9.426679836640959875e-01,4.737406965099411754e-02,-2.205733116739498900e-01
9.721263581535989351e-01,5.724440692679129417e-02,-2.257223112601768888e-01
1.001584732643101994e+00,6.735672558629667017e-02,-2.302086146118487164e-01
1.031043107132604941e+00,7.764936519731081843e-02,-2.340233733287300222e-01
1.060501481622107889e+00,8.806458819367669888e-02,-2.371635436577168854e-01
1.089959856111611058e+00,9.854528909349968835e-02,-2.396315770071833773e-01
1.119418230601114006e+00,1.090351979486013090e-01,-2.414350707686759856e-01
1.148876605090616954e+00,1.194866857814694261e-01,-2.425863870192282723e-01
1.178334979580120123e+00,1.298444714734816319e-01,-2.431022463881880313e-01
1.207793354069622849e+00,1.400639364890353400e-01,-2.430033040201624028e-01
1.237251728559126018e+00,1.501009482614044932e-01,-2.423137141602086375e-01
1.266710103048629188e+00,1.599149067067744956e-01,-2.410606894384182963e-01
1.296168477538131913e+00,1.694706252582244554e-01,-2.392740604479908495e-01
1.325626852027635083e+00,1.787331299727112077e-01,-2.369858407028139491e-01
1.355085226517137809e+00,1.876744650888148014e-01,-2.342298015361442276e-01
1.384543601006640978e+00,1.962699348016308520e-01,-2.310410609692708228e-01
1.414001975496144148e+00,2.044968209648794499e-01,-2.274556900456021491e-01
1.443460349985646873e+00,2.123372419333537098e-01,-2.235103395982476204e-01
1.472918724475150043e+00,2.197773803726031927e-01,-2.192418899040765035e-01
1.502377098964652991e+00,2.268058190813548036e-01,-2.146871251798730396e-01
1.531835473454155938e+00,2.334146446242977568e-01,-2.098824344012253373e-01
1.561293847943659108e+00,2.395996844227818168e-01,-2.048635394762852724e-01
1.590752222433162055e+00,2.453596722694440235e-01,-1.996652513876547852e-01
1.620210596922665003e+00,2.506958696398253195e-01,-1.943212545290514681e-01
1.649668971412167950e+00,2.556118182486988855e-01,-1.888639191109252602e-01
1.679127345901671120e+00,2.601135635970847626e-01,-1.833241411921000541e-01
1.708585720391174068e+00,2.642094911737101204e-01,-1.777312096134608110e-01
1.738044094880677015e+00,2.679102935299603749e-01,-1.721126988648164768e-01
1.767502469370179963e+00,2.712259981739055248e-01,-1.664943867069254846e-01
1.796960843859682910e+00,2.741717875433475338e-01,-1.609001951964898480e-01
1.826419218349186080e+00,2.767606370734986831e-01,-1.553521536214320653e-01
1.855877592838688805e+00,2.790089516894181387e-01,-1.498703817454649923e-01
1.885335967328191975e+00,2.809327036434667302e-01,-1.444730916829697620e-01
1.914794341817695145e+00,2.825487297485781424e-01,-1.391766066754955011e-01
1.944252716307197870e+00,2.838745172933468397e-01,-1.339953950175150899e-01
1.973711090796701040e+00,2.849282078015786257e-01,-1.289421173791014952e-01
2.003169465286203987e+00,2.857269937705362861e-01,-1.240276857944600519e-01
2.032627839775706935e+00,2.862893284617167300e-01,-1.192613326253123690e-01
2.062086214265209883e+00,2.866316264528254720e-01,-1.146506878645170840e-01
2.091544588754712830e+00,2.867727807015390540e-01,-1.102018632155855327e-01
2.121002963244215778e+00,2.867291116090743830e-01,-1.059195414655690476e-01
2.150461337733719169e+00,2.865182405247835851e-01,-1.018070697598699170e-01
2.179919712223222117e+00,2.861549497928705388e-01,-9.786655548574056673e-02
2.209378086712725064e+00,2.856558028686549400e-01,-9.409896357453922944e-02
2.238836461202228012e+00,2.850353513939768990e-01,-9.050421413937673187e-02
2.268294835691730960e+00,2.843080045536373612e-01,-8.708127947287155890e-02
2.297753210181233907e+00,2.834884770997219139e-01,-8.382827953783068831e-02
2.327211584670737299e+00,2.825870498031893829e-01,-8.074257519038885444e-02
2.356669959160240246e+00,2.816143643765534610e-01,-7.782085847928542355e-02
2.386128333649743194e+00,2.805886547447499213e-01,-7.505923946550246972e-02
2.415586708139245697e+00,2.795146337783898649e-01,-7.245332910255629366e-02
2.445045082628749089e+00,2.784035221870959642e-01,-6.999831780862154906e-02
2.474503457118252037e+00,2.772643774701536445e-01,-6.768904944681559954e-02
2.503961831607754984e+00,2.761054926234139395e-01,-6.552009050894942732e-02
2.533420206097258376e+00,2.749340731969399099e-01,-6.348579437058930741e-02
2.562878580586760879e+00,2.737570333506456066e-01,-6.158036055118125407e-02
2.592336955076263827e+00,2.725805112064673685e-01,-5.979788897222358679e-02
2.621795329565767219e+00,2.714105189672616492e-01,-5.813242925905683783e-02
2.651253704055270166e+00,2.702511868953039187e-01,-5.657802517789404378e-02
2.680712078544773114e+00,2.691074454978440444e-01,-5.512875433943641851e-02
2.710170453034275617e+00,2.679825323254855785e-01,-5.377876333405488818e-02
2.739628827523779009e+00,2.668800735999956042e-01,-5.252229849137524803e-02
2.769087202013281956e+00,2.658026031135665157e-01,-5.135373247952599446e-02
2.798545576502784904e+00,2.647527961507892824e-01,-5.026758697666677128e-02
2.828003950992288296e+00,2.637323437715327068e-01,-4.925855166010725816e-02
2.857462325481790799e+00,2.627427324745145731e-01,-4.832149976675976372e-02
2.886920699971293747e+00,2.617853093748324089e-01,-4.745150048325921105e-02
2.916379074460797138e+00,2.608609823130312866e-01,-4.664382842524254086e-02
2.945837448950300086e+00,2.599701641207420866e-01,-4.589397046341671393e-02
2.975295823439803033e+00,2.591135185996971679e-01,-4.519763014955290731e-02
3.004754197929305981e+00,2.582909347610184980e-01,-4.455072998880877516e-02
3.034212572418808929e+00,2.575025088282739127e-01,-4.394941179615852872e-02
3.063670946908311876e+00,2.567478357508641285e-01,-4.339003536454619225e-02
3.093129321397815268e+00,2.560265660643331054e-01,-4.286917566098533833e-02
3.122587695887318215e+00,2.553383645562738447e-01,-4.238361875450395028e-02
3.152046070376820719e+00,2.546823045329370538e-01,-4.193035666683890550e-02
3.181504444866324111e+00,2.540576662118370632e-01,-4.150658132336659117e-02
3.210962819355827058e+00,2.534636774747424104e-01,-4.110967776812395752e-02
3.240421193845330006e+00,2.528995897709813701e-01,-4.073721679312249794e-02
3.269879568334833397e+00,2.523644564640087906e-01,-4.038694711864711240e-02
3.299337942824335901e+00,2.518566491545046748e-01,-4.005678724800557783e-02
3.328796317313838848e+00,2.513759308892937749e-01,-3.974481710737157170e-02
3.358254691803342240e+00,2.509212139636934902e-01,-3.944926956904036552e-02
3.387713066292845188e+00,2.504913447803881477e-01,-3.916852194467208836e-02
3.417171440782348135e+00,2.500854794472137099e-01,-3.890108752399084463e-02
3.446629815271850639e+00,2.497018724611866358e-01,-3.864560722398524550e-02
3.476088189761354030e+00,2.493391334726464681e-01,-3.840084140394241230e-02
3.505546564250856978e+00,2.489983391917190980e-01,-3.816566189266459158e-02
3.535004938740359925e+00,2.486767805862872549e-01,-3.793904426596441531e-02
3.564463313229863317e+00,2.483742848518758206e-01,-3.772006040501082319e-02
3.593921687719365821e+00,2.480887538871424380e-01,-3.750787135928648069e-02
3.623380062208868768e+00,2.478209677550608225e-01,-3.730172053179837965e-02
3.652838436698372160e+00,2.475687639519517369e-01,-3.710092719873252232e-02
3.682296811187875107e+00,2.473318151420007271e-01,-3.690488037092549273e-02
3.711755185677377611e+00,2.471090129024943183e-01,-3.671303300031005662e-02
3.741213560166881003e+00,2.468999498098937984e-01,-3.652489653083902665e-02
3.770671934656383950e+00,2.467036710145310008e-01,-3.634003579026259811e-02
3.800130309145886898e+00,2.465193816978920871e-01,-3.615806421649152974e-02
3.829588683635390289e+00,2.463465858996388702e-01,-3.597863941007876237e-02
3.859047058124893237e+00,2.461846480802070969e-01,-3.580145900255916891e-02
3.888505432614395740e+00,2.460327733780073023e-01,-3.562625682895871615e-02
3.917963807103899132e+00,2.458905225091627678e-01,-3.545279939168560768e-02
3.947422181593402080e+00,2.457568349862206680e-01,-3.528088260221000361e-02
3.976880556082905027e+00,2.456319891640797448e-01,-3.511032878638959548e-02
4.006338930572407975e+00,2.455146434370641673e-01,-3.494098393897632909e-02
4.035797305061911366e+00,2.454053151129225452e-01,-3.477271521271266264e-02
4.065255679551413870e+00,2.453029380100926193e-01,-3.460540862746561835e-02
4.094714054040917262e+00,2.452068214549287251e-01,-3.443896698502962178e-02
4.124172428530419765e+00,2.451171788804682172e-01,-3.427330797552901459e-02
4.153630803019923157e+00,2.450336975798836081e-01,-3.410836246174757391e-02
4.183089177509425660e+00,2.449553796193953692e-01,-3.394407292818717864e-02
4.212547551998929052e+00,2.448821207705301761e-01,-3.378039208219092010e-02
4.242005926488431555e+00,2.448137510996385158e-01,-3.361728159504580316e-02
4.271464300977934947e+00,2.447498911357846030e-01,-3.345471097159009866e-02
4.300922675467438339e+00,2.446903914191338458e-01,-3.329265653748021692e-02
4.330381049956940842e+00,2.446349046408815009e-01,-3.313110053391223747e-02
4.359839424446444234e+00,2.445833862359209909e-01,-3.297003031023328784e-02
4.389297798935946737e+00,2.445349932369523804e-01,-3.280943760551296301e-02
4.418756173425450129e+00,2.444904232107098230e-01,-3.264931791076693124e-02
4.448214547914952632e+00,2.444487982146669736e-01,-3.248966990413055395e-02
4.477672922404456024e+00,2.444099223320662650e-01,-3.233049495186397781e-02
4.507131296893959416e+00,2.443739316839929343e-01,-3.217179666863156928e-02
4.536589671383461919e+00,2.443405514693934855e-01,-3.201358053103182943e-02
4.566048045872965311e+00,2.443093902953479835e-01,-3.185585353886096621e-02
4.595506420362467814e+00,2.442806576243607974e-01,-3.169862391907112692e-02
4.624964794851971206e+00,2.442541656454439991e-01,-3.154190086783285885e-02
4.654423169341474598e+00,2.442295171415287680e-01,-3.138569432653118274e-02
4.683881543830977101e+00,2.442067572850968038e-01,-3.123001478791527161e-02
4.713339918320480493e+00,2.441859555716992536e-01,-3.107487312898433648e-02
4.742798292809982996e+00,2.441665010629939236e-01,-3.092028046752726134e-02
4.772256667299486388e+00,2.441486047448882812e-01,-3.076624803954269502e-02
4.801715041788989780e+00,2.441323968249057563e-01,-3.061278709504921050e-02
4.831173416278491395e+00,2.441170409680050446e-01,-3.045990881005544715e-02
4.860631790767994787e+00,2.441036299521563147e-01,-3.030762421269635187e-02
4.890090165257498178e+00,2.440908332122802560e-01,-3.015594412175778144e-02
4.919548539747000682e+00,2.440794554144884443e-01,-3.000487909600721773e-02
4.949006914236504073e+00,2.440691003744799026e-01,-2.985443939292554971e-02
4.978465288726007465e+00,2.440596725148221346e-01,-2.970463493559484178e-02
5.007923663215509968e+00,2.440512183924164746e-01,-2.955547528664132298e-02
5.037382037705013360e+00,2.440436620747076235e-01,-2.940696962826158320e-02
5.066840412194516752e+00,2.440367681682695522e-01,-2.925912674747731951e-02
5.096298786684018367e+00,2.440308511441617867e-01,-2.911195502586590503e-02
5.125757161173521759e+00,2.440255263042096223e-01,-2.896546243310848048e-02
5.155215535663025150e+00,2.440207681502148673e-01,-2.881965652377859594e-02
5.184673910152527654e+00,2.440165127576020554e-01,-2.867454443686767371e-02
5.214132284642031046e+00,2.440130384605218583e-01,-2.853013289760903543e-02
5.243590659131534437e+00,2.440098565911742179e-01,-2.838642822121934667e-02
5.273049033621036941e+00,2.440073003115382499e-01,-2.824343631822664319e-02
5.302507408110540332e+00,2.440048773943080951e-01,-2.810116270109952810e-02
5.331965782600042836e+00,2.440030279030470095e-01,-2.795961249193067155e-02
5.361424157089546227e+00,2.440018854078021826e-01,-2.781879043096255333e-02
5.390882531579049619e+00,2.440006050006663096e-01,-2.767870088577338572e-02
5.420340906068551234e+00,2.440002286427006006e-01,-2.753934786096760498e-02
5.449799280558054626e+00,2.439997789835927910e-01,-2.740073500823808628e-02
5.479257655047558018e+00,2.439996730726438912e-01,-2.726286563668751592e-02
5.508716029537060521e+00,2.439998027322869412e-01,-2.712574272331344169e-02
5.538174404026563913e+00,2.440000898730133316e-01,-2.698936892357665929e-02
5.567632778516067305e+00,2.440008812983620878e-01,-2.685374658198573516e-02
5.597091153005569808e+00,2.440017126262003233e-01,-2.671887774264148849e-02
5.626549527495073200e+00,2.440022890097418296e-01,-2.658476415969482712e-02
5.656007901984576591e+00,2.440037554871793968e-01,-2.645140730768016230e-02
5.685466276474078207e+00,2.440043843392821765e-01,-2.631880839169324637e-02
5.714924650963581598e+00,2.440059425475310240e-01,-2.618696835738818993e-02
5.744383025453084990e+00,2.440071226517740999e-01,-2.605588790077444442e-02
5.773841399942587493e+00,2.440086484272386835e-01,-2.592556747779799914e-02
5.803299774432090885e+00,2.440104097040989295e-01,-2.579600731369536062e-02
5.832758148921594277e+00,2.440117413953828973e-01,-2.566720741211188025e-02
5.862216523411096780e+00,2.440141902904331972e-01,-2.553916756397848695e-02
5.891674897900600172e+00,2.440152539794236131e-01,-2.541188735614356362e-02
5.921133272390103564e+00,2.440176735509629602e-01,-2.528536617975783024e-02
5.950591646879606067e+00,2.440194301479714778e-01,-2.515960323841257701e-02
5.980050021369108570e+00,2.440211633491388421e-01,-2.503459755603195183e-02
6.009508395858611962e+00,2.440222498653449590e-01,-2.491034798452159901e-02
6.038966770348114466e+00,2.440240331666587992e-01,-2.478685321117692422e-02
6.068425144837617857e+00,2.440265138987796345e-01,-2.466411176585416379e-02
6.097883519327121249e+00,2.440274690805786517e-01,-2.454212202790892472e-02
6.127341893816623752e+00,2.440292323859904744e-01,-2.442088223290676124e-02
6.156800268306127144e+00,2.440311192064618384e-01,-2.430039047911062081e-02
6.186258642795630536e+00,2.440324800187468890e-01,-2.418064473375051981e-02
6.215717017285133039e+00,2.440340297482360421e-01,-2.406164283908097598e-02
6.245175391774636431e+00,2.440355036266345090e-01,-2.394338251823135977e-02
6.274633766264139823e+00,2.440370327594560684e-01,-2.382586138085509772e-02
6.304092140753641438e+00,2.440386173620809340e-01,-2.370907692858316776e-02
6.333550515243144829e+00,2.440399629316116481e-01,-2.359302656028733347e-02
6.363008889732648221e+00,2.440411431021999589e-01,-2.347770757715912301e-02
6.392467264222150725e+00,2.440423381135791991e-01,-2.336311718760942721e-02
6.421925638711654116e+00,2.440434844274231296e-01,-2.324925251199478141e-02
6.451384013201157508e+00,2.440446270585044652e-01,-2.313611058717508426e-02
6.480842387690660011e+00,2.440455186442356539e-01,-2.302368837090841211e-02
6.510300762180163403e+00,2.440462682515671389e-01,-2.291198274608785904e-02
6.539759136669666795e+00,2.440470284917482247e-01,-2.280099052482542979e-02
6.569217511159168410e+00,2.440481092241924277e-01,-2.269070845238785675e-02
6.598675885648671802e+00,2.440483976719478865e-01,-2.258113321098919116e-02
6.628134260138175193e+00,2.440491411819672163e-01,-2.247226142344476915e-02
6.657592634627677697e+00,2.440495533179033172e-01,-2.236408965669097609e-02
6.687051009117181088e+00,2.440500858898048131e-01,-2.225661442517531605e-02
6.716509383606684480e+00,2.440502411178942788e-01,-2.214983219412108503e-02
6.745967758096186984e+00,2.440504411182727318e-01,-2.204373938267062752e-02
6.775426132585690375e+00,2.440506828081537294e-01,-2.193833236691128744e-02
6.804884507075192879e+00,2.440505798843481400e-01,-2.183360748278806093e-02
6.834342881564696270e+00,2.440502874546378043e-01,-2.172956102890654176e-02
6.863801256054198774e+00,2.440501702682063845e-01,-2.162618926922990972e-02
6.893259630543701277e+00,2.440498493563118265e-01,-2.152348843567357048e-02
6.922718005033204669e+00,2.440494339385923250e-01,-2.142145473060082933e-02
6.952176379522708061e+00,2.440489179963810096e-01,-2.132008432922285687e-02
6.981634754012210564e+00,2.440483067729322109e-01,-2.121937338190643327e-02
7.011093128501713956e+00,2.440476055281123047e-01,-2.111931801639222936e-02
7.040551502991217347e+00,2.440466415594158556e-01,-2.101991433992701080e-02
7.070009877480719851e+00,2.440458090608625952e-01,-2.092115844131248528e-02
7.099468251970223243e+00,2.440448335480844555e-01,-2.082304639287358219e-02
7.128926626459726634e+00,2.440436628475620151e-01,-2.072557425234924922e-02
7.158385000949228250e+00,2.440426095587487354e-01,-2.062873806470792715e-02
7.187843375438731641e+00,2.440414384080984989e-01,-2.053253386389064516e-02
7.217301749928235033e+00,2.440399122241958263e-01,-2.043695767448420672e-02
7.246760124417737536e+00,2.440383236468544048e-01,-2.034200551332654774e-02
7.276218498907240928e+00,2.440366914982560753e-01,-2.024767339104708436e-02
7.305676873396744320e+00,2.440350616428298980e-01,-2.015395731354381950e-02
7.335135247886246823e+00,2.440334015181616079e-01,-2.006085328339978976e-02
7.364593622375750215e+00,2.440315560346684176e-01,-1.996835730124062180e-02
7.394051996865253606e+00,2.440296481408149309e-01,-1.987646536703552291e-02
7.423510371354755222e+00,2.440276879111614727e-01,-1.978517348134354800e-02
7.452968745844258613e+00,2.440250745086292306e-01,-1.969447764650687771e-02
7.482427120333762005e+00,2.440228506602327985e-01,-1.960437386779339403e-02
7.511885494823264509e+00,2.440205533674611738e-01,-1.951485815448979200e-02
7.541343869312767900e+00,2.440182661979543866e-01,-1.942592652094746186e-02
7.570802243802271292e+00,2.440155917032400534e-01,-1.933757498758243223e-02
7.600260618291773795e+00,2.440129782887399401e-01,-1.924979958183110906e-02
7.629718992781277187e+00,2.440104559552829788e-01,-1.916259633906347917e-02
7.659177367270780579e+00,2.440075404309774432e-01,-1.907596130345516269e-02
7.688635741760283082e+00,2.440046172050503726e-01,-1.898989052881969869e-02
