# omega (a.u.), Re alpha(w), Im alpha(w)
0.000000000000000000e+00,0.000000000000000000e+00,0.000000000000000000e+00
2.945837448950299961e-02,1.350205936246726785e-03,-1.592285447679261598e-02
5.891674897900599922e-02,5.339142595750700354e-03,-3.138922945922419105e-02
8.837512346850900924e-02,1.178776359162022648e-02,-4.598114408451367541e-02
1.178334979580119984e-01,2.041665124320982475e-02,-5.935122066412893554e-02
1.472918724475150154e-01,3.087126587531761196e-02,-7.124372870838809046e-02
1.767502469370180185e-01,4.275162795910265184e-02,-8.150267929861311489e-02
2.062086214265209938e-01,5.564238416527386016e-02,-9.006790988040330737e-02
2.356669959160239969e-01,6.913976821643699755e-02,-9.696213836775552375e-02
2.651253704055269722e-01,8.287304867334098490e-02,-1.022728351635426303e-01
2.945837448950300308e-01,9.651931744987829465e-02,-1.061325660943512744e-01
3.240421193845329784e-01,1.098116149759690852e-01,-1.087005915554008217e-01
3.535004938740360370e-01,1.225412229074675508e-01,-1.101474102774647329e-01
3.829588683635389845e-01,1.345554220077317398e-01,-1.106429403949913959e-01
4.124172428530419876e-01,1.457521487262449511e-01,-1.103483021844245959e-01
4.418756173425449907e-01,1.560728799324055949e-01,-1.094107354530533954e-01
4.713339918320479938e-01,1.654948340891127523e-01,-1.079609997921785608e-01
5.007923663215509968e-01,1.740232865801074613e-01,-1.061125893752875582e-01
5.302507408110539444e-01,1.816845178032191754e-01,-1.039621717819381314e-01
5.597091153005570030e-01,1.885196787460119427e-01,-1.015907771224512784e-01
5.891674897900600616e-01,1.945796824335224995e-01,-9.906538466223757666e-02
6.186258642795630092e-01,1.999211093364864356e-01,-9.644066094480775730e-02
6.480842387690659567e-01,2.046030417336205665e-01,-9.376068909765480908e-02
6.775426132585689043e-01,2.086847048174669816e-01,-9.106059313908648756e-02
7.070009877480720739e-01,2.122237800942883834e-01,-8.836800643219992757e-02
7.364593622375750215e-01,2.152752602190821374e-01,-8.570436378810031286e-02
7.659177367270779691e-01,2.178907269014840331e-01,-8.308601589560646317e-02
7.953761112165810276e-01,2.201179500738418560e-01,-8.052517599344184707e-02
8.248344857060839752e-01,2.220007239980059666e-01,-7.803071455490831476e-02
8.542928601955870338e-01,2.235788725567899315e-01,-7.560882011789145374e-02
8.837512346850899814e-01,2.248883706810539951e-01,-7.326354460822112613e-02
9.132096091745930400e-01,2.259615413400061779e-01,-7.099725048893296142e-02
9.426679836640959875e-01,2.268272977598102813e-01,-6.881097542499098330e-02
9.721263581535989351e-01,2.275114087158446319e-01,-6.670472826365138330e-02
1.001584732643101994e+00,2.280367711367112804e-01,-6.467772822412030942e-02
1.031043107132604941e+00,2.284236791568323155e-01,-6.272859739499740683e-02
1.060501481622107889e+00,2.286900824400995846e-01,-6.085551501804249697e-02
1.089959856111611058e+00,2.288518293199748588e-01,-5.905634061585755129e-02
1.119418230601114006e+00,2.289228922747409689e-01,-5.732871179933589356e-02
1.148876605090616954e+00,2.289155746558036442e-01,-5.567012155544486668e-02
1.178334979580120123e+00,2.288406985530460624e-01,-5.407797894809762695e-02
1.207793354069622849e+00,2.287077743253857764e-01,-5.254965644340374442e-02
1.237251728559126018e+00,2.285251527330235954e-01,-5.108252647456851259e-02
1.266710103048629188e+00,2.283001608462907339e-01,-4.967398937171670775e-02
1.296168477538131913e+00,2.280392230242213603e-01,-4.832149438060803076e-02
1.325626852027635083e+00,2.277479682911035808e-01,-4.702255516650567790e-02
1.355085226517137809e+00,2.274313254186339228e-01,-4.577476093246361094e-02
1.384543601006640978e+00,2.270936069648342992e-01,-4.457578406415844269e-02
1.414001975496144148e+00,2.267385834428573832e-01,-4.342338503704332858e-02
1.443460349985646873e+00,2.263695487033201004e-01,-4.231541517853808221e-02
1.472918724475150043e+00,2.259893775198299759e-01,-4.124981776201563921e-02
1.502377098964652991e+00,2.256005762736300047e-01,-4.022462781543078431e-02
1.531835473454155938e+00,2.252053275428365919e-01,-3.923797095142074476e-02
1.561293847943659108e+00,2.248055293164614998e-01,-3.828806146422056994e-02
1.590752222433162055e+00,2.244028294743371788e-01,-3.737319988902463447e-02
1.620210596922665003e+00,2.239986561016744648e-01,-3.649177017926764216e-02
1.649668971412167950e+00,2.235942441413396320e-01,-3.564223662487577687e-02
1.679127345901671120e+00,2.231906588278750048e-01,-3.482314060838927194e-02
1.708585720391174068e+00,2.227888162944536843e-01,-3.403309727478617819e-02
1.738044094880677015e+00,2.223895016969229255e-01,-3.327079217388158316e-02
1.767502469370179963e+00,2.219933851573828720e-01,-3.253497792055344562e-02
1.796960843859682910e+00,2.216010357928713814e-01,-3.182447090712160753e-02
1.826419218349186080e+00,2.212129340622016327e-01,-3.113814809346765120e-02
1.855877592838688805e+00,2.208294826353786322e-01,-3.047494389351123462e-02
1.885335967328191975e+00,2.204510159648599144e-01,-2.983384717111811635e-02
1.914794341817695145e+00,2.200778087158522522e-01,-2.921389835413025840e-02
1.944252716307197870e+00,2.197100831934677423e-01,-2.861418667175720520e-02
1.973711090796701040e+00,2.193480158876024155e-01,-2.803384751787095161e-02
2.003169465286203987e+00,2.189917432415361409e-01,-2.747205994065647985e-02
2.032627839775706935e+00,2.186413667372444358e-01,-2.692804425746807631e-02
2.062086214265209883e+00,2.182969573790227713e-01,-2.640105979253197163e-02
2.091544588754712830e+00,2.179585596470538233e-01,-2.589040273424032118e-02
2.121002963244215778e+00,2.176261949838227960e-01,-2.539540410813601393e-02
2.150461337733719169e+00,2.172998648686429168e-01,-2.491542786124149519e-02
2.179919712223222117e+00,2.169795535288657207e-01,-2.444986905309674483e-02
2.209378086712725064e+00,2.166652303304876237e-01,-2.399815214870610475e-02
2.238836461202228012e+00,2.163568518857313105e-01,-2.355972940852621433e-02
2.268294835691730960e+00,2.160543639106791425e-01,-2.313407937063337999e-02
2.297753210181233907e+00,2.157577028620869253e-01,-2.272070542027315732e-02
2.327211584670737299e+00,2.154667973790478086e-01,-2.231913444210040925e-02
2.356669959160240246e+00,2.151815695521315797e-01,-2.192891555055725972e-02
2.386128333649743194e+00,2.149019360399604950e-01,-2.154961889399565483e-02
2.415586708139245697e+00,2.146278090508337566e-01,-2.118083452832762378e-02
2.445045082628749089e+00,2.143590972049530807e-01,-2.082217135617071835e-02
2.474503457118252037e+00,2.140957062909880360e-01,-2.047325612764634012e-02
2.503961831607754984e+00,2.138375399291235490e-01,-2.013373249917990715e-02
2.533420206097258376e+00,2.135845001513258234e-01,-1.980326014684223590e-02
2.562878580586760879e+00,2.133364879083270160e-01,-1.948151393095808731e-02
2.592336955076263827e+00,2.130934035117331982e-01,-1.916818310889042282e-02
2.621795329565767219e+00,2.128551470187018957e-01,-1.886297059308482751e-02
2.651253704055270166e+00,2.126216185657809621e-01,-1.856559225162842872e-02
2.680712078544773114e+00,2.123927186577538873e-01,-1.827577624873987991e-02
2.710170453034275617e+00,2.121683484166701772e-01,-1.799326242276219970e-02
2.739628827523779009e+00,2.119484097956556568e-01,-1.771780169937726621e-02
2.769087202013281956e+00,2.117328057615764370e-01,-1.744915553790107876e-02
2.798545576502784904e+00,2.115214404501740419e-01,-1.718709540865023463e-02
2.828003950992288296e+00,2.113142192968803235e-01,-1.693140229949596093e-02
2.857462325481790799e+00,2.111110491461618555e-01,-1.668186624983865329e-02
2.886920699971293747e+00,2.109118383419237297e-01,-1.643828591034738815e-02
2.916379074460797138e+00,2.107164968012213424e-01,-1.620046812691253169e-02
2.945837448950300086e+00,2.105249360732745767e-01,-1.596822754735758437e-02
2.975295823439803033e+00,2.103370693855585727e-01,-1.574138624954783683e-02
3.004754197929305981e+00,2.101528116785469358e-01,-1.551977338961971035e-02
3.034212572418808929e+00,2.099720796305057091e-01,-1.530322486913509965e-02
3.063670946908311876e+00,2.097947916735821428e-01,-1.509158302004032920e-02
3.093129321397815268e+00,2.096208680022929316e-01,-1.488469630638020180e-02
3.122587695887318215e+00,2.094502305753917215e-01,-1.468241904178362381e-02
3.152046070376820719e+00,2.092828031119883803e-01,-1.448461112179891264e-02
3.181504444866324111e+00,2.091185110826911941e-01,-1.429113777021502781e-02
3.210962819355827058e+00,2.089572816964602731e-01,-1.410186929855881781e-02
3.240421193845330006e+00,2.087990438837793450e-01,-1.391668087800881741e-02
3.269879568334833397e+00,2.086437282766858969e-01,-1.373545232301369434e-02
3.299337942824335901e+00,2.084912671861378630e-01,-1.355806788594732595e-02
3.328796317313838848e+00,2.083415945771402711e-01,-1.338441606217387336e-02
3.358254691803342240e+00,2.081946460420063261e-01,-1.321438940493493280e-02
3.387713066292845188e+00,2.080503587720839431e-01,-1.304788434950665370e-02
3.417171440782348135e+00,2.079086715282397191e-01,-1.288480104610888709e-02
3.446629815271850639e+00,2.077695246103593296e-01,-1.272504320107951427e-02
3.476088189761354030e+00,2.076328598260895608e-01,-1.256851792585694447e-02
3.505546564250856978e+00,2.074986204590234529e-01,-1.241513559334136811e-02
3.535004938740359925e+00,2.073667512365015009e-01,-1.226480970123086135e-02
3.564463313229863317e+00,2.072371982971855653e-01,-1.211745674195311047e-02
3.593921687719365821e+00,2.071099091585351104e-01,-1.197299607883566160e-02
3.623380062208868768e+00,2.069848326843070074e-01,-1.183134982817906494e-02
3.652838436698372160e+00,2.068619190521769347e-01,-1.169244274691703597e-02
3.682296811187875107e+00,2.067411197215718310e-01,-1.155620212556631582e-02
3.711755185677377611e+00,2.066223874017885376e-01,-1.142255768618621707e-02
3.741213560166881003e+00,2.065056760204626585e-01,-1.129144148508431575e-02
3.770671934656383950e+00,2.063909406924441525e-01,-1.116278782001993777e-02
3.800130309145886898e+00,2.062781376891253682e-01,-1.103653314167126094e-02
3.829588683635390289e+00,2.061672244082602690e-01,-1.091261596914554211e-02
3.859047058124893237e+00,2.060581593443078507e-01,-1.079097680932441378e-02
3.888505432614395740e+00,2.059509020593264517e-01,-1.067155807984795923e-02
3.917963807103899132e+00,2.058454131544389665e-01,-1.055430403555249717e-02
3.947422181593402080e+00,2.057416542418867844e-01,-1.043916069818739967e-02
3.976880556082905027e+00,2.056395879176839692e-01,-1.032607578924580813e-02
4.006338930572407975e+00,2.055391777348810900e-01,-1.021499866575372936e-02
4.035797305061911366e+00,2.054403881774446439e-01,-1.010588025887009141e-02
4.065255679551413870e+00,2.053431846347542611e-01,-9.998673015158925786e-03
4.094714054040917262e+00,2.052475333767189991e-01,-9.893330840402118215e-03
4.124172428530419765e+00,2.051534015295106983e-01,-9.789809045828500728e-03
4.153630803019923157e+00,2.050607570519119849e-01,-9.688064296641762940e-03
4.183089177509425660e+00,2.049695687122723986e-01,-9.588054562735976241e-03
4.212547551998929052e+00,2.048798060660675935e-01,-9.489739071493499128e-03
4.242005926488431555e+00,2.047914394340542843e-01,-9.393078262565683623e-03
4.271464300977934947e+00,2.047044398810115295e-01,-9.298033744542051962e-03
4.300922675467438339e+00,2.046187791950598578e-01,-9.204568253418608792e-03
4.330381049956940842e+00,2.045344298675481898e-01,-9.112645612780603116e-03
4.359839424446444234e+00,2.044513650734981203e-01,-9.022230695619663440e-03
4.389297798935946737e+00,2.043695586525938745e-01,-8.933289387709094503e-03
4.418756173425450129e+00,2.042889850907080307e-01,-8.845788552465320281e-03
4.448214547914952632e+00,2.042096195019496574e-01,-8.759695997227102612e-03
4.477672922404456024e+00,2.041314376112249029e-01,-8.674980440887550964e-03
4.507131296893959416e+00,2.040544157372961576e-01,-8.591611482817427398e-03
4.536589671383461919e+00,2.039785307763298805e-01,-8.509559573021224094e-03
4.566048045872965311e+00,2.039037601859186311e-01,-8.428795983470523112e-03
4.595506420362467814e+00,2.038300819695678390e-01,-8.349292780561913194e-03
4.624964794851971206e+00,2.037574746616327426e-01,-8.271022798649295404e-03
4.654423169341474598e+00,2.036859173126959188e-01,-8.193959614603094771e-03
4.683881543830977101e+00,2.036153894753721105e-01,-8.118077523350971519e-03
4.713339918320480493e+00,2.035458711905285545e-01,-8.043351514357102716e-03
4.742798292809982996e+00,2.034773429739110684e-01,-7.969757248999042795e-03
4.772256667299486388e+00,2.034097858031622963e-01,-7.897271038803265267e-03
4.801715041788989780e+00,2.033431811052227589e-01,-7.825869824502295485e-03
4.831173416278491395e+00,2.032775107441028017e-01,-7.755531155878155405e-03
4.860631790767994787e+00,2.032127570090146718e-01,-7.686233172358585518e-03
4.890090165257498178e+00,2.031489026028556466e-01,-7.617954584334033982e-03
4.919548539747000682e+00,2.030859306310294765e-01,-7.550674655164946875e-03
4.949006914236504073e+00,2.030238245905987005e-01,-7.484373183850341095e-03
4.978465288726007465e+00,2.029625683597561236e-01,-7.419030488329991964e-03
5.007923663215509968e+00,2.029021461876070465e-01,-7.354627389393899803e-03
5.037382037705013360e+00,2.028425426842521972e-01,-7.291145195173816956e-03
5.066840412194516752e+00,2.027837428111628482e-01,-7.228565686192965460e-03
5.096298786684018367e+00,2.027257318718390378e-01,-7.166871100950956801e-03
5.125757161173521759e+00,2.026684955027418522e-01,-7.106044122022160334e-03
5.155215535663025150e+00,2.026120196644928539e-01,-7.046067862646682861e-03
5.184673910152527654e+00,2.025562906333302493e-01,-6.986925853794030000e-03
5.214132284642031046e+00,2.025012949928159944e-01,-6.928602031680500956e-03
5.243590659131534437e+00,2.024470196257853460e-01,-6.871080725722176694e-03
5.273049033621036941e+00,2.023934517065308913e-01,-6.814346646906157753e-03
5.302507408110540332e+00,2.023405786932145900e-01,-6.758384876563516309e-03
5.331965782600042836e+00,2.022883883205006117e-01,-6.703180855528128798e-03
5.361424157089546227e+00,2.022368685924020582e-01,-6.648720373666298748e-03
5.390882531579049619e+00,2.021860077753346030e-01,-6.594989559762644976e-03
5.420340906068551234e+00,2.021357943913716926e-01,-6.541974871748509196e-03
5.449799280558054626e+00,2.020862172116937305e-01,-6.489663087259579452e-03
5.479257655047558018e+00,2.020372652502265276e-01,-6.438041294510158698e-03
5.508716029537060521e+00,2.019889277574618558e-01,-6.387096883471856529e-03
5.538174404026563913e+00,2.019411942144560268e-01,-6.336817537345221067e-03
5.567632778516067305e+00,2.018940543269994448e-01,-6.287191224313159327e-03
5.597091153005569808e+00,2.018474980199529700e-01,-6.238206189565529552e-03
5.626549527495073200e+00,2.018015154317453486e-01,-6.189850947584716635e-03
5.656007901984576591e+00,2.017560969090268219e-01,-6.142114274682462273e-03
5.685466276474078207e+00,2.017112330014746713e-01,-6.094985201778628341e-03
5.714924650963581598e+00,2.016669144567446448e-01,-6.048453007412841684e-03
5.744383025453084990e+00,2.016231322155657701e-01,-6.002507210980606925e-03
5.773841399942587493e+00,2.015798774069722521e-01,-5.957137566185498161e-03
5.803299774432090885e+00,2.015371413436694015e-01,-5.912334054699622428e-03
5.832758148921594277e+00,2.014949155175288775e-01,-5.868086880024811491e-03
5.862216523411096780e+00,2.014531915952099128e-01,-5.824386461547213616e-03
5.891674897900600172e+00,2.014119614139019132e-01,-5.781223428778386325e-03
5.921133272390103564e+00,2.013712169771853244e-01,-5.738588615776168966e-03
5.950591646879606067e+00,2.013309504510072401e-01,-5.696473055738953892e-03
5.980050021369108570e+00,2.012911541597671161e-01,-5.654867975767149425e-03
6.009508395858611962e+00,2.012518205825109541e-01,-5.613764791786012877e-03
6.038966770348114466e+00,2.012129423492297342e-01,-5.573155103624059629e-03
6.068425144837617857e+00,2.011745122372582961e-01,-5.533030690241707954e-03
6.097883519327121249e+00,2.011365231677733345e-01,-5.493383505104837417e-03
6.127341893816623752e+00,2.010989682023859582e-01,-5.454205671698284831e-03
6.156800268306127144e+00,2.010618405398267583e-01,-5.415489479174405776e-03
6.186258642795630536e+00,2.010251335127203887e-01,-5.377227378132065638e-03
6.215717017285133039e+00,2.009888405844472703e-01,-5.339411976521590657e-03
6.245175391774636431e+00,2.009529553460888407e-01,-5.302036035671389008e-03
6.274633766264139823e+00,2.009174715134555145e-01,-5.265092466432088128e-03
6.304092140753641438e+00,2.008823829241938030e-01,-5.228574325434235705e-03
6.333550515243144829e+00,2.008476835349692069e-01,-5.192474811455713261e-03
6.363008889732648221e+00,2.008133674187256579e-01,-5.156787261895229811e-03
6.392467264222150725e+00,2.007794287620165430e-01,-5.121505149348295170e-03
6.421925638711654116e+00,2.007458618624053670e-01,-5.086622078282301493e-03
6.451384013201157508e+00,2.007126611259361926e-01,-5.052131781807436134e-03
6.480842387690660011e+00,2.006798210646695557e-01,-5.018028118540245226e-03
6.510300762180163403e+00,2.006473362942825522e-01,-4.984305069556802664e-03
6.539759136669666795e+00,2.006152015317320680e-01,-4.950956735432608322e-03
6.569217511159168410e+00,2.005834115929781558e-01,-4.917977333366302037e-03
6.598675885648671802e+00,2.005519613907662535e-01,-4.885361194384567861e-03
6.628134260138175193e+00,2.005208459324672732e-01,-4.853102760625537145e-03
6.657592634627677697e+00,2.004900603179724794e-01,-4.821196582698223689e-03
6.687051009117181088e+00,2.004595997376430461e-01,-4.789637317115494689e-03
6.716509383606684480e+00,2.004294594703109889e-01,-4.758419723798292846e-03
6.745967758096186984e+00,2.003996348813323058e-01,-4.727538663648813734e-03
6.775426132585690375e+00,2.003701214206884129e-01,-4.696989096190454412e-03
6.804884507075192879e+00,2.003409146211365399e-01,-4.666766077272452469e-03
6.834342881564696270e+00,2.003120100964061734e-01,-4.636864756837165077e-03
6.863801256054198774e+00,2.002834035394409629e-01,-4.607280376748045143e-03
6.893259630543701277e+00,2.002550907206850639e-01,-4.578008268676401170e-03
6.922718005033204669e+00,2.002270674864121414e-01,-4.549043852045175744e-03
6.952176379522708061e+00,2.001993297570955344e-01,-4.520382632027895170e-03
6.981634754012210564e+00,2.001718735258198600e-01,-4.492020197601188231e-03
7.011093128501713956e+00,2.001446948567310591e-01,-4.463952219649144557e-03
7.040551502991217347e+00,2.001177898835250768e-01,-4.436174449118004265e-03
7.070009877480719851e+00,2.000911548079737923e-01,-4.408682715219610672e-03
7.099468251970223243e+00,2.000647858984868077e-01,-4.381472923682151570e-03
7.128926626459726634e+00,2.000386794887090702e-01,-4.354541055046772663e-03
7.158385000949228250e+00,2.000128319761515228e-01,-4.327883163008692732e-03
7.187843375438731641e+00,1.999872398208560331e-01,-4.301495372801458772e-03
7.217301749928235033e+00,1.999618995440925751e-01,-4.275373879623096431e-03
7.246760124417737536e+00,1.999368077270868571e-01,-4.249514947102876403e-03
7.276218498907240928e+00,1.999119610097800925e-01,-4.223914905807515420e-03
7.305676873396744320e+00,1.998873560896174129e-01,-4.198570151785649580e-03
7.335135247886246823e+00,1.998629897203652861e-01,-4.173477145149442034e-03
7.364593622375750215e+00,1.998388587109578007e-01,-4.148632408692257308e-03
7.394051996865253606e+00,1.998149599243700392e-01,-4.124032526541332802e-03
7.423510371354755222e+00,1.997912902765176246e-01,-4.099674142844466490e-03
7.452968745844258613e+00,1.997678467351831910e-01,-4.075553960489673895e-03
7.482427120333762005e+00,1.997446263189671944e-01,-4.051668739856949600e-03
7.511885494823264509e+00,1.997216260962642875e-01,-4.028015297601131479e-03
7.541343869312767900e+00,1.996988431842626754e-01,-4.004590505465030655e-03
7.570802243802271292e+00,1.996762747479673972e-01,-3.981391289121940721e-03
7.600260618291773795e+00,1.996539179992465884e-01,-3.958414627046714408e-03
7.629718992781277187e+00,1.996317701958987001e-01,-3.935657549414560245e-03
7.659177367270780579e+00,1.996098286407426425e-01,-3.913117137026829798e-03
7.688635741760283082e+00,1.995880906807279420e-01,-3.890790520262991849e-03
