# omega (a.u.), Re alpha(w), Im alpha(w)
0.000000000000000000e+00,0.000000000000000000e+00,0.000000000000000000e+00
7.364593622375749903e-03,5.878563025817939007e-06,-2.775613605734925126e-04
1.472918724475149981e-02,2.349726664319977751e-05,-5.546174728327106810e-04
2.209378086712725231e-02,5.280526028289679152e-05,-8.306658441365955469e-04
2.945837448950299961e-02,9.371814455195585393e-05,-1.105209462849817944e-03
3.682296811187875385e-02,1.461184945721085945e-04,-1.377759463554316128e-03
4.418756173425450462e-02,2.098565847306710732e-04,-1.647837703464806241e-03
5.155215535663024845e-02,2.847513070803665315e-04,-1.914979222992760355e-03
5.891674897900599922e-02,3.705912736267686801e-04,-2.178734565492736718e-03
6.628134260138174305e-02,4.671360909058230653e-04,-2.438671933727832360e-03
7.364593622375750770e-02,5.741177936030660402e-04,-2.694379163440922906e-03
8.101052984613324459e-02,6.912424225259263628e-04,-2.945465497541376130e-03
8.837512346850900924e-02,8.181917310293388562e-04,-3.191563147734175279e-03
9.573971709088474613e-02,9.546250030258080811e-04,-3.432328633849093986e-03
1.031043107132604969e-01,1.100180964993591843e-03,-3.667443894591168336e-03
1.104689043356362477e-01,1.254479773932810601e-03,-3.896617166853059370e-03
1.178334979580119984e-01,1.417125063008508982e-03,-4.119583634032939444e-03
1.251980915803877492e-01,1.587706026654573223e-03,-4.336105846923597913e-03
1.325626852027634861e-01,1.765799527182521783e-03,-4.545973923623804203e-03
1.399272788251392508e-01,1.950972205429205584e-03,-4.749005537525140437e-03
1.472918724475150154e-01,2.142782578669060779e-03,-4.945045704711886411e-03
1.546564660698907523e-01,2.340783109889106855e-03,-5.133966384052438513e-03
1.620210596922664892e-01,2.544522233554350789e-03,-5.315665904844882848e-03
1.693856533146422261e-01,2.753546324152788757e-03,-5.490068238102290346e-03
1.767502469370180185e-01,2.967401595078367812e-03,-5.657122128430437831e-03
1.841148405593937554e-01,3.185635916759193328e-03,-5.816800103975111082e-03
1.914794341817694923e-01,3.407800544342518868e-03,-5.969097382118768516e-03
1.988440278041452569e-01,3.633451746683251469e-03,-6.114030688512442704e-03
2.062086214265209938e-01,3.862152329823522866e-03,-6.251637006669281439e-03
2.135732150488967585e-01,4.093473049578547247e-03,-6.381972274753832178e-03
2.209378086712724953e-01,4.326993909234582922e-03,-6.505110045411137236e-03
2.283024022936482600e-01,4.562305339706325576e-03,-6.621140123527662243e-03
2.356669959160239969e-01,4.799009260771791227e-03,-6.730167195736568887e-03
2.430315895383997338e-01,5.036720023197049055e-03,-6.832309464306980835e-03
2.503961831607754984e-01,5.275065232664321625e-03,-6.927697296822099907e-03
2.577607767831512353e-01,5.513686457422696356e-03,-7.016471901783338794e-03
2.651253704055269722e-01,5.752239822481870074e-03,-7.098784039003254963e-03
2.724899640279027646e-01,5.990396493965265655e-03,-7.174792772391668134e-03
2.798545576502785015e-01,6.227843057926879707e-03,-7.244664271516608293e-03
2.872191512726542384e-01,6.464281798518188744e-03,-7.308570667150673592e-03
2.945837448950300308e-01,6.699430880869218854e-03,-7.366688964907161692e-03
3.019483385174057122e-01,6.933024444425542679e-03,-7.419200020038479483e-03
3.093129321397815046e-01,7.164812612764997167e-03,-7.466287575519356401e-03
3.166775257621572970e-01,7.394561426111274753e-03,-7.508137364673293096e-03
3.240421193845329784e-01,7.622052702871191625e-03,-7.544936278824891478e-03
3.314067130069087708e-01,7.847083836558131284e-03,-7.576871599773524896e-03
3.387713066292844521e-01,8.069467534429605043e-03,-7.604130296283426356e-03
3.461359002516602446e-01,8.289031504074314063e-03,-7.626898383269393664e-03
3.535004938740360370e-01,8.505618094036800428e-03,-7.645360341921365703e-03
3.608650874964117183e-01,8.719083894376337615e-03,-7.659698598650984194e-03
3.682296811187875107e-01,8.929299302827074097e-03,-7.670093060453245064e-03
3.755942747411632476e-01,9.136148061965230008e-03,-7.676720704050593591e-03
3.829588683635389845e-01,9.339526772504378946e-03,-7.679755216019835615e-03
3.903234619859147769e-01,9.539344387535429043e-03,-7.679366680987513745e-03
3.976880556082905138e-01,9.735521692212043346e-03,-7.675721314911354738e-03
4.050526492306662507e-01,9.927990773056814128e-03,-7.668981240438035862e-03
4.124172428530419876e-01,1.011669448073660577e-02,-7.659304301335524701e-03
4.197818364754177800e-01,1.030158588982762503e-02,-7.646843913036277182e-03
4.271464300977935169e-01,1.048262775876828215e-02,-7.631748946390777208e-03
4.345110237201692538e-01,1.065979199288202665e-02,-7.614163641815012776e-03
4.418756173425449907e-01,1.083305911304567257e-02,-7.594227551116216300e-03
4.492402109649207276e-01,1.100241773228488595e-02,-7.572075504394906210e-03
4.566048045872965200e-01,1.116786404229680278e-02,-7.547837599544963971e-03
4.639693982096722014e-01,1.132940131163333308e-02,-7.521639212003793096e-03
4.713339918320479938e-01,1.148703939702722804e-02,-7.493601022539636732e-03
4.786985854544237862e-01,1.164079426910854566e-02,-7.463839060999956712e-03
4.860631790767994675e-01,1.179068755353992852e-02,-7.432464764082329263e-03
4.934277726991752600e-01,1.193674608839721124e-02,-7.399585045325377322e-03
5.007923663215509968e-01,1.207900149843626689e-02,-7.365302375650938961e-03
5.081569599439267337e-01,1.221748978671749128e-02,-7.329714872918672436e-03
5.155215535663024706e-01,1.235225094390537265e-02,-7.292916399080026819e-03
5.228861471886782075e-01,1.248332857542187868e-02,-7.254996663639032284e-03
5.302507408110539444e-01,1.261076954650858749e-02,-7.216041332242393615e-03
5.376153344334297923e-01,1.273462364514205310e-02,-7.176132139330548831e-03
5.449799280558055292e-01,1.285494326264964918e-02,-7.135347003884347054e-03
5.523445216781812661e-01,1.297178309178806214e-02,-7.093760147398950854e-03
5.597091153005570030e-01,1.308519984197390081e-02,-7.051442213307008988e-03
5.670737089229327399e-01,1.319525197129194603e-02,-7.008460387157814699e-03
5.744383025453084768e-01,1.330199943485479291e-02,-6.964878516937380790e-03
5.818028961676843247e-01,1.340550344904261650e-02,-6.920757232987045059e-03
5.891674897900600616e-01,1.350582627111719322e-02,-6.876154067044932747e-03
5.965320834124357985e-01,1.360303099367491872e-02,-6.831123569996157621e-03
6.038966770348114244e-01,1.369718135338344328e-02,-6.785717427973705224e-03
6.112612706571872723e-01,1.378834155343003007e-02,-6.739984576503396316e-03
6.186258642795630092e-01,1.387657609910062338e-02,-6.693971312432829557e-03
6.259904579019387461e-01,1.396194964590320546e-02,-6.647721403426616431e-03
6.333550515243145940e-01,1.404452685964793085e-02,-6.601276194848380158e-03
6.407196451466902198e-01,1.412437228790022585e-02,-6.554674713884310090e-03
6.480842387690659567e-01,1.420155024222789428e-02,-6.507953770794075617e-03
6.554488323914418046e-01,1.427612469067325758e-02,-6.461148057202389418e-03
6.628134260138175415e-01,1.434815915989177612e-02,-6.414290241369012893e-03
6.701780196361932784e-01,1.441771664641229057e-02,-6.367411060396970315e-03
6.775426132585689043e-01,1.448485953648833563e-02,-6.320539409357710942e-03
6.849072068809447522e-01,1.454964953402668182e-02,-6.273702427329121666e-03
6.922718005033204891e-01,1.461214759609575330e-02,-6.226925580356763856e-03
6.996363941256962260e-01,1.467241387553520210e-02,-6.180232741361807794e-03
7.070009877480720739e-01,1.473050767020592927e-02,-6.133646267030000952e-03
7.143655813704476998e-01,1.478648737843909870e-02,-6.087187071725557765e-03
7.217301749928234367e-01,1.484041046026154248e-02,-6.040874698481925840e-03
7.290947686151992846e-01,1.489233340399430915e-02,-5.994727387128025858e-03
7.364593622375750215e-01,1.494231169784026106e-02,-5.948762139614284343e-03
7.438239558599507584e-01,1.499039980609524238e-02,-5.902994782607151776e-03
7.511885494823264953e-01,1.503665114963615053e-02,-5.857440027424612276e-03
7.585531431047022322e-01,1.508111809035788016e-02,-5.812111527387820928e-03
7.659177367270779691e-01,1.512385191924792843e-02,-5.767021932666165432e-03
7.732823303494538170e-01,1.516490284780614047e-02,-5.722182942694466028e-03
7.806469239718295539e-01,1.520432000253260120e-02,-5.677605356241832539e-03
7.880115175942051797e-01,1.524215142222413132e-02,-5.633299119212155370e-03
7.953761112165810276e-01,1.527844405783438352e-02,-5.589273370256025129e-03
8.027407048389567645e-01,1.531324377466866324e-02,-5.545536484273582388e-03
8.101052984613325014e-01,1.534659535669807839e-02,-5.502096113886836316e-03
8.174698920837083493e-01,1.537854251279251357e-02,-5.458959228959208571e-03
8.248344857060839752e-01,1.540912788468377405e-02,-5.416132154238547866e-03
8.321990793284597121e-01,1.543839305648443336e-02,-5.373620605198563098e-03
8.395636729508355600e-01,1.546637856559835052e-02,-5.331429722151939318e-03
8.469282665732112969e-01,1.549312391487135156e-02,-5.289564102706617588e-03
8.542928601955870338e-01,1.551866758584055130e-02,-5.248027832634926879e-03
8.616574538179626597e-01,1.554304705295169418e-02,-5.206824515223269952e-03
8.690220474403385076e-01,1.556629879862272449e-02,-5.165957299168029426e-03
8.763866410627142445e-01,1.558845832904167186e-02,-5.125428905081436462e-03
8.837512346850899814e-01,1.560956019059493369e-02,-5.085241650668911005e-03
8.911158283074658293e-01,1.562963798683052880e-02,-5.045397474637394568e-03
8.984804219298414552e-01,1.564872439586795574e-02,-5.005897959392139121e-03
9.058450155522171920e-01,1.566685118817413847e-02,-4.966744352577218656e-03
9.132096091745930400e-01,1.568404924463078290e-02,-4.927937587513100959e-03
9.205742027969687769e-01,1.570034857482544011e-02,-4.889478302582487765e-03
9.279387964193444027e-01,1.571577833550388131e-02,-4.851366859613681637e-03
9.353033900417202506e-01,1.573036684912722943e-02,-4.813603361308782004e-03
9.426679836640959875e-01,1.574414162248206905e-02,-4.776187667762029146e-03
9.500325772864717244e-01,1.575712936529684999e-02,-4.739119412111838549e-03
9.573971709088475723e-01,1.576935600882190674e-02,-4.702398015368120833e-03
9.647617645312233092e-01,1.578084672433497510e-02,-4.666022700454867424e-03
9.721263581535989351e-01,1.579162594153744881e-02,-4.629992505506046185e-03
9.794909517759747830e-01,1.580171736681071012e-02,-4.594306296451433104e-03
9.868555453983505199e-01,1.581114400130442452e-02,-4.558962778927152550e-03
9.942201390207262568e-01,1.581992815883261072e-02,-4.523960509544316076e-03
1.001584732643101994e+00,1.582809148355530590e-02,-4.489297906547559842e-03
1.008949326265477842e+00,1.583565496742669540e-02,-4.454973259893835712e-03
1.016313919887853467e+00,1.584263896739299474e-02,-4.420984740780462344e-03
1.023678513510229315e+00,1.584906322232516179e-02,-4.387330410650034859e-03
1.031043107132604941e+00,1.585494686967425446e-02,-4.354008229698557407e-03
1.038407700754980789e+00,1.586030846183822396e-02,-4.321016064911894008e-03
1.045772294377356415e+00,1.586516598223158131e-02,-4.288351697654477733e-03
1.053136887999732263e+00,1.586953686105009934e-02,-4.256012830833011754e-03
1.060501481622107889e+00,1.587343799072484657e-02,-4.223997095656917451e-03
1.067866075244483737e+00,1.587688574106065759e-02,-4.192302058016113796e-03
1.075230668866859585e+00,1.587989597405562239e-02,-4.160925224495829258e-03
1.082595262489235211e+00,1.588248405839909339e-02,-4.129864048047098002e-03
1.089959856111611058e+00,1.588466488364691231e-02,-4.099115933330771573e-03
1.097324449733986684e+00,1.588645287407315296e-02,-4.068678241751899800e-03
1.104689043356362532e+00,1.588786200219879235e-02,-4.038548296200613827e-03
1.112053636978738158e+00,1.588890580199827166e-02,-4.008723385514781183e-03
1.119418230601114006e+00,1.588959738178536210e-02,-3.979200768678936920e-03
1.126782824223489854e+00,1.588994943678114641e-02,-3.949977678773343437e-03
1.134147417845865480e+00,1.588997426136619026e-02,-3.921051326686259692e-03
1.141512011468241328e+00,1.588968376102056421e-02,-3.892418904601914129e-03
1.148876605090616954e+00,1.588908946395525476e-02,-3.864077589275995237e-03
1.156241198712992801e+00,1.588820253243889563e-02,-3.836024545109913749e-03
1.163605792335368649e+00,1.588703377382426341e-02,-3.808256927034528883e-03
1.170970385957744275e+00,1.588559365127885370e-02,-3.780771883213447301e-03
1.178334979580120123e+00,1.588389229422480786e-02,-3.753566557575541574e-03
1.185699573202495749e+00,1.588193950849265887e-02,-3.726638092185818006e-03
1.193064166824871597e+00,1.587974478619465224e-02,-3.699983629463313075e-03
1.200428760447247445e+00,1.587731731532250265e-02,-3.673600314254221559e-03
1.207793354069622849e+00,1.587466598907541840e-02,-3.647485295768124192e-03
1.215157947691998697e+00,1.587179941492357707e-02,-3.621635729384642746e-03
1.222522541314374545e+00,1.586872592341293312e-02,-3.596048778337642728e-03
1.229887134936750170e+00,1.586545357671688763e-02,-3.570721615283589927e-03
1.237251728559126018e+00,1.586199017694050334e-02,-3.545651423760404729e-03
1.244616322181501866e+00,1.585834327418296844e-02,-3.520835399542857503e-03
1.251980915803877492e+00,1.585452017436396466e-02,-3.496270751900111724e-03
1.259345509426253340e+00,1.585052794681963279e-02,-3.471954704760911708e-03
1.266710103048629188e+00,1.584637343167389148e-02,-3.447884497791458246e-03
1.274074696671004592e+00,1.584206324699040727e-02,-3.424057387390867964e-03
1.281439290293380440e+00,1.583760379571111376e-02,-3.400470647608798240e-03
1.288803883915756288e+00,1.583300127238664382e-02,-3.377121570989627831e-03
1.296168477538131913e+00,1.582826166970389276e-02,-3.354007469347285858e-03
1.303533071160507761e+00,1.582339078481654823e-02,-3.331125674474690393e-03
1.310897664782883609e+00,1.581839422548337107e-02,-3.308473538791500707e-03
1.318262258405259235e+00,1.581327741601977477e-02,-3.286048435933702078e-03
1.325626852027635083e+00,1.580804560306767539e-02,-3.263847761288345573e-03
1.332991445650010709e+00,1.580270386118870149e-02,-3.241868932476647727e-03
1.340356039272386557e+00,1.579725709828552760e-02,-3.220109389788405625e-03
1.347720632894762405e+00,1.579171006085656678e-02,-3.198566596570581472e-03
1.355085226517137809e+00,1.578606733908822363e-02,-3.177238039572761498e-03
1.362449820139513657e+00,1.578033337178987028e-02,-3.156121229252001510e-03
1.369814413761889504e+00,1.577451245117572620e-02,-3.135213700039522853e-03
1.377179007384265130e+00,1.576860872749824560e-02,-3.114513010571496980e-03
1.384543601006640978e+00,1.576262621353737708e-02,-3.094016743886095298e-03
1.391908194629016826e+00,1.575656878894986235e-02,-3.073722507588893312e-03
1.399272788251392452e+00,1.575044020448273033e-02,-3.053627933988506057e-03
1.406637381873768300e+00,1.574424408605504949e-02,-3.033730680204335672e-03
1.414001975496144148e+00,1.573798393871190734e-02,-3.014028428248163687e-03
1.421366569118519552e+00,1.573166315045436414e-02,-2.994518885081227325e-03
1.428731162740895400e+00,1.572528499594923190e-02,-2.975199782648320704e-03
1.436095756363271247e+00,1.571885264012223837e-02,-2.956068877890451370e-03
1.443460349985646873e+00,1.571236914163821538e-02,-2.937123952737373186e-03
1.450824943608022721e+00,1.570583745627157982e-02,-2.918362814081360349e-03
1.458189537230398569e+00,1.569926044017074321e-02,-2.899783293733484545e-03
1.465554130852774195e+00,1.569264085301953424e-02,-2.881383248363511129e-03
1.472918724475150043e+00,1.568598136109870811e-02,-2.863160559424608644e-03
1.480283318097525891e+00,1.567928454025101226e-02,-2.845113133063870061e-03
1.487647911719901517e+00,1.567255287875230288e-02,-2.827238900019661810e-03
1.495012505342277143e+00,1.566578878009210890e-02,-2.809535815506751261e-03
1.502377098964652991e+00,1.565899456566613099e-02,-2.792001859090099958e-03
1.509741692587028616e+00,1.565217247738351358e-02,-2.774635034548144415e-03
1.517106286209404464e+00,1.564532468019177655e-02,-2.757433369726387199e-03
1.524470879831780312e+00,1.563845326452155404e-02,-2.740394916382036822e-03
1.531835473454155938e+00,1.563156024865412080e-02,-2.723517750020399905e-03
1.539200067076531786e+00,1.562464758101385874e-02,-2.706799969723700395e-03
1.546564660698907634e+00,1.561771714238806112e-02,-2.690239697972955559e-03
1.553929254321283260e+00,1.561077074807648221e-02,-2.673835080463511128e-03
1.561293847943659108e+00,1.560381014997273483e-02,-2.657584285914790269e-03
1.568658441566034956e+00,1.559683703857979269e-02,-2.641485505874768130e-03
1.576023035188410359e+00,1.558985304496159595e-02,-2.625536954519720571e-03
1.583387628810786207e+00,1.558285974263283642e-02,-2.609736868449655592e-03
1.590752222433162055e+00,1.557585864938892950e-02,-2.594083506479928376e-03
1.598116816055537681e+00,1.556885122907794572e-02,-2.578575149429405966e-03
1.605481409677913529e+00,1.556183889331649167e-02,-2.563210099905616560e-03
1.612846003300289377e+00,1.555482300315125417e-02,-2.547986682087222989e-03
1.620210596922665003e+00,1.554780487066792331e-02,-2.532903241504182515e-03
1.627575190545040851e+00,1.554078576054924304e-02,-2.517958144815916899e-03
1.634939784167416699e+00,1.553376689158370537e-02,-2.503149779587798482e-03
1.642304377789792103e+00,1.552674943812656222e-02,-2.488476554066240687e-03
1.649668971412167950e+00,1.551973453151465031e-02,-2.473936896952659212e-03
1.657033565034543798e+00,1.551272326143649655e-02,-2.459529257176568031e-03
1.664398158656919424e+00,1.550571667725904844e-02,-2.445252103668037885e-03
1.671762752279295272e+00,1.549871578931263753e-02,-2.431103925129745377e-03
1.679127345901671120e+00,1.549172157013524107e-02,-2.417083229808811729e-03
1.686491939524046746e+00,1.548473495567755272e-02,-2.403188545268651524e-03
1.693856533146422594e+00,1.547775684646996927e-02,-2.389418418160972786e-03
1.701221126768798220e+00,1.547078810875284448e-02,-2.375771413998145707e-03
1.708585720391174068e+00,1.546382957557107876e-02,-2.362246116926056648e-03
1.715950314013549693e+00,1.545688204783418618e-02,-2.348841129497623078e-03
1.723314907635925319e+00,1.544994629534304775e-02,-2.335555072447096075e-03
1.730679501258301167e+00,1.544302305778427406e-02,-2.322386584465289169e-03
1.738044094880677015e+00,1.543611304569332890e-02,-2.309334321975824601e-03
1.745408688503052641e+00,1.542921694138733521e-02,-2.296396958912550954e-03
1.752773282125428489e+00,1.542233539986860927e-02,-2.283573186498193738e-03
1.760137875747804337e+00,1.541546904969967081e-02,-2.270861713024360361e-03
1.767502469370179963e+00,1.540861849385094864e-02,-2.258261263632969310e-03
1.774867062992555811e+00,1.540178431052178359e-02,-2.245770580099196775e-03
1.782231656614931659e+00,1.539496705393567436e-02,-2.233388420616018791e-03
1.789596250237307062e+00,1.538816725511059358e-02,-2.221113559580388357e-03
1.796960843859682910e+00,1.538138542260525377e-02,-2.208944787381142069e-03
1.804325437482058758e+00,1.537462204324176011e-02,-2.196880910188682250e-03
1.811690031104434384e+00,1.536787758280594093e-02,-2.184920749746476626e-03
1.819054624726810232e+00,1.536115248672552565e-02,-2.173063143164430649e-03
1.826419218349186080e+00,1.535444718072723029e-02,-2.161306942714181882e-03
1.833783811971561706e+00,1.534776207147322581e-02,-2.149651015626333813e-03
1.841148405593937554e+00,1.534109754717787391e-02,-2.138094243889684162e-03
1.848512999216313402e+00,1.533445397820493508e-02,-2.126635524052463300e-03
1.855877592838688805e+00,1.532783171764641114e-02,-2.115273767025621816e-03
1.863242186461064653e+00,1.532123110188314367e-02,-2.104007897888162445e-03
1.870606780083440501e+00,1.531465245112799585e-02,-2.092836855694592702e-03
1.877971373705816127e+00,1.530809606995210334e-02,-2.081759593284434901e-03
1.885335967328191975e+00,1.530156224779475466e-02,-2.070775077093890259e-03
1.892700560950567823e+00,1.529505125945728253e-02,-2.059882286969596816e-03
1.900065154572943449e+00,1.528856336558169840e-02,-2.049080215984550989e-03
1.907429748195319297e+00,1.528209881311444127e-02,-2.038367870256149825e-03
1.914794341817695145e+00,1.527565783575554094e-02,-2.027744268766389947e-03
1.922158935440070771e+00,1.526924065439399895e-02,-2.017208443184212354e-03
