# omega (a.u.), Re alpha(w), Im alpha(w)
0.000367493221756550,0.000000239375830101,-0.000581389671019383
0.002207905167988250,0.000008640543788461,-0.003492984391911788
0.004048317114219949,0.000029048647729763,-0.006404518775493001
0.005888729060451649,0.000061463128239645,-0.009315942530501249
0.007729141006683348,0.000105883096813057,-0.012227205371407436
0.009569552952915049,0.000162307335906464,-0.015138257021020554
0.011409964899146748,0.000230734299009414,-0.018049047213092126
0.013250376845378447,0.000311162110736181,-0.020959525694919594
0.015090788791610148,0.000403588566938902,-0.023869642229948213
0.016931200737841847,0.000508011134833945,-0.026779346600371293
0.018771612684073548,0.000624426953155668,-0.029688588609728506
0.020612024630305245,0.000752832832321998,-0.032597318085501828
0.022452436576536946,0.000893225254626688,-0.035505484881709196
0.024292848522768647,0.001045600374443633,-0.038413038881495137
0.026133260469000344,0.001209954018456447,-0.041319929999718563
0.027973672415232041,0.001386281685903873,-0.044226108185537114
0.029814084361463745,0.001574578548845980,-0.047131523424987949
0.031654496307695443,0.001774839452450659,-0.050036125743564773
0.033494908253927147,0.001987058915294311,-0.052939865208790481
0.035335320200158844,0.002211231129689679,-0.055842691932785800
0.037175732146390542,0.002447349962026447,-0.058744556074832893
0.039016144092622246,0.002695408953132854,-0.061645407843934359
0.040856556038853936,0.002955401318657861,-0.064545197501366669
0.042696967985085640,0.003227319949470086,-0.067443875363228753
0.044537379931317345,0.003511157412077285,-0.070341391802984002
0.046377791877549042,0.003806905949064261,-0.073237697253997258
0.048218203823780746,0.004114557479550142,-0.076132742212064800
0.050058615770012437,0.004434103599664786,-0.079026477237938236
0.051899027716244141,0.004765535583042192,-0.081918852959841554
0.053739439662475845,0.005108844381334938,-0.084809820075981049
0.055579851608707535,0.005464020624745624,-0.087699329357048161
0.057420263554939240,0.005831054622577913,-0.090587331648714728
0.059260675501170937,0.006209936363807420,-0.093473777874120298
0.061101087447402641,0.006600655517669124,-0.096358619036351692
0.062941499393634345,0.007003201434260389,-0.099241806220914039
0.064781911339866036,0.007417563145172540,-0.102123290598193320
0.066622323286097740,0.007843729364129781,-0.105003023425910419
0.068462735232329444,0.008281688487651723,-0.107880956051565793
0.070303147178561134,0.008731428595734808,-0.110757039914874941
0.072143559124792839,0.009192937452547663,-0.113631226550194475
0.073983971071024529,0.009666202507149627,-0.116503467588938495
0.075824383017256219,0.010151210894225068,-0.119373714761984662
0.077664794963487938,0.010647949434834011,-0.122241919902070353
0.079505206909719628,0.011156404637185466,-0.125108034946178198
0.081345618855951318,0.011676562697419216,-0.127972011937910912
0.083186030802183022,0.012208409500418566,-0.130833803029855394
0.085026442748414727,0.012751930620629723,-0.133693360485935109
0.086866854694646431,0.013307111322903124,-0.136550636683751808
0.088707266640878121,0.013873936563352684,-0.139405584116915254
0.090547678587109812,0.014452390990229068,-0.142258155397360669
0.092388090533341530,0.015042458944817193,-0.145108303257655086
0.094228502479573220,0.015644124462341352,-0.147955980553290567
0.096068914425804924,0.016257371272896035,-0.150801140264965272
0.097909326372036629,0.016882182802389584,-0.153643735500851836
0.099749738318268319,0.017518542173504507,-0.156483719498852369
0.101590150264500023,0.018166432206677265,-0.159321045628841168
0.103430562210731727,0.018825835421090027,-0.162155667394892872
0.105270974156963418,0.019496734035686324,-0.164987538437498360
0.107111386103195122,0.020179109970196150,-0.167816612535765658
0.108951798049426812,0.020872944846181352,-0.170642843609607575
0.110792209995658517,0.021578219988095688,-0.173466185721915411
0.112632621941890221,0.022294916424364701,-0.176286593080717119
0.114473033888121911,0.023023014888472700,-0.179104020041321865
0.116313445834353629,0.023762495820079981,-0.181918421108450162
0.118153857780585320,0.024513339366140953,-0.184729750938347564
0.119994269726817010,0.025275525382048528,-0.187537964340884655
0.121834681673048728,0.026049033432789099,-0.190343016281640853
0.123675093619280418,0.026833842794115777,-0.193144861883973090
0.125515505565512137,0.027629932453735174,-0.195943456431068891
0.127355917511743827,0.028437281112509989,-0.198738755367982689
0.129196329457975517,0.029255867185676059,-0.201530714303657404
0.131036741404207235,0.030085668804078407,-0.204319289012928951
0.132877153350438926,0.030926663815416658,-0.207104435438513867
0.134717565296670616,0.031778829785508257,-0.209886109692982131
0.136557977242902306,0.032642143999566053,-0.212664268060711315
0.138398389189134025,0.033516583463491685,-0.215438866999824730
0.140238801135365715,0.034402124905180555,-0.218209863144112448
0.142079213081597405,0.035298744775843639,-0.220977213304935416
0.143919625027829096,0.036206419251341930,-0.223740874473111556
0.145760036974060814,0.037125124233537518,-0.226500803820784441
0.147600448920292504,0.038054835351654055,-0.229256958703274893
0.149440860866524222,0.038995527963655928,-0.232009296660914327
0.151281272812755913,0.039947177157637057,-0.234757775420859655
0.153121684758987603,0.040909757753226535,-0.237502352898891544
0.154962096705219321,0.041883244303006495,-0.240242987201192471
0.156802508651450984,0.042867611093941556,-0.242979636626108136
0.158642920597682702,0.043862832148821300,-0.245712259665889554
0.160483332543914420,0.044868881227724429,-0.248440815008416221
0.162323744490146082,0.045885731829477985,-0.251165261538901452
0.164164156436377801,0.046913357193149652,-0.253885558341577722
0.166004568382609519,0.047951730299535769,-0.256601664701364585
0.167844980328841209,0.049000823872673703,-0.259313540105514939
0.169685392275072899,0.050060610381357534,-0.262021144245245197
0.171525804221304617,0.051131062040675204,-0.264724437017343495
0.173366216167536308,0.052212150813546132,-0.267423378525759869
0.175206628113767998,0.053303848412282522,-0.270117929083176167
0.177047040059999716,0.054406126300152909,-0.272808049212557302
0.178887452006231407,0.055518955692963549,-0.275493699648680757
0.180727863952463097,0.056642307560648725,-0.278174841339649148
0.182568275898694815,0.057776152628870939,-0.280851435448379982
0.184408687844926505,0.058920461380634163,-0.283523443354077476
0.186249099791158196,0.060075204057908609,-0.286190826653682506
0.188089511737389914,0.061240350663263818,-0.288853547163304192
0.189929923683621604,0.062415870961514859,-0.291511566919629539
0.191770335629853322,0.063601734481377029,-0.294164848181313832
0.193610747576084985,0.064797910517133780,-0.296813353430350257
0.195451159522316703,0.066004368130308896,-0.299457045373418440
0.197291571468548421,0.067221076151357653,-0.302095886943213265
0.199131983414780084,0.068448003181358713,-0.304729841299753113
0.200972395361011802,0.069685117593722617,-0.307358871831665881
0.202812807307243520,0.070932387535904723,-0.309982942157456587
0.204653219253475183,0.072189780931130709,-0.312602016126751536
0.206493631199706901,0.073457265480133746,-0.315216057821525064
0.208334043145938619,0.074734808662891519,-0.317825031557300297
0.210174455092170281,0.076022377740382799,-0.320428901884334594
0.212014867038402000,0.077319939756345990,-0.323027633588780116
0.213855278984633718,0.078627461539049454,-0.325621191693824252
0.215695690930865380,0.079944909703068251,-0.328209541460809828
0.217536102877097098,0.081272250651070563,-0.330792648390333399
0.219376514823328816,0.082609450575613516,-0.333370478223321665
0.221216926769560479,0.083956475460941052,-0.335942996942089289
0.223057338715792197,0.085313291084798168,-0.338510170771372132
0.224897750662023888,0.086679863020245385,-0.341071966179341934
0.226738162608255606,0.088056156637486588,-0.343628349878597805
0.228578574554487296,0.089442137105696845,-0.346179288827137888
0.230418986500718986,0.090837769394868456,-0.348724750229308877
0.232259398446950704,0.092243018277649746,-0.351264701536735280
0.234099810393182395,0.093657848331204038,-0.353799110449224574
0.235940222339414085,0.095082223939066901,-0.356327944915655392
0.237780634285645803,0.096516109293013880,-0.358851173134840551
0.239621046231877494,0.097959468394931831,-0.361368763556370542
0.241461458178109184,0.099412265058697241,-0.363880684881435434
0.243301870124340902,0.100874462912064478,-0.366386906063625561
0.245142282070572592,0.102346025398551907,-0.368887396309710347
0.246982694016804283,0.103826915779342915,-0.371382125080396475
0.248823105963036001,0.105317097135183252,-0.373871062091064410
0.250663517909267719,0.106816532368291375,-0.376354177312484051
0.252503929855499409,0.108325184204270494,-0.378831440971508226
0.254344341801731100,0.109843015194022856,-0.381302823551745829
0.256184753747962790,0.111369987715678007,-0.383768295794213565
0.258025165694194480,0.112906063976513704,-0.386227828697966902
0.259865577640426171,0.114451206014890380,-0.388681393520708462
0.261705989586657917,0.116005375702187455,-0.391128961779376616
0.263546401532889552,0.117568534744741424,-0.393570505250712577
0.265386813479121297,0.119140644685791178,-0.396005995971807301
0.267227225425352988,0.120721666907426639,-0.398435406240625067
0.269067637371584678,0.122311562632538395,-0.400858708616508796
0.270908049317816368,0.123910292926774440,-0.403275875920662941
0.272748461264048114,0.125517818700498385,-0.405686881236615560
0.274588873210279749,0.127134100710751180,-0.408091697910660522
0.276429285156511495,0.128759099563216572,-0.410490299552277282
0.278269697102743185,0.130392775714187420,-0.412882660034531779
0.280110109048974876,0.132035089472538447,-0.415268753494455800
0.281950520995206566,0.133686001001697113,-0.417648554333405420
0.283790932941438312,0.135345470321619948,-0.420022037217399280
0.285631344887670002,0.137013457310771303,-0.422389177077437006
0.287471756833901693,0.138689921708101987,-0.424749949109796132
0.289312168780133383,0.140374823115032021,-0.427104328776309272
0.291152580726365073,0.142068120997432684,-0.429452291804621467
0.292992992672596764,0.143769774687613178,-0.431793814188426051
0.294833404618828510,0.145479743386307592,-0.434128872187682202
0.296673816565060200,0.147197986164662453,-0.436457442328810508
0.298514228511291890,0.148924461966223137,-0.438779501404870209
0.300354640457523636,0.150659129608929632,-0.441095026475716467
0.302195052403755271,0.152401947787103115,-0.443403994868135587
0.304035464349986961,0.154152875073438417,-0.445706384175964698
0.305875876296218652,0.155911869920997509,-0.448002172260187459
0.307716288242450398,0.157678890665200799,-0.450291337249013157
0.309556700188682088,0.159453895525820954,-0.452573857537935498
0.311397112134913834,0.161236842608974112,-0.454849711789771738
0.313237524081145469,0.163027689909115009,-0.457118878934682615
0.315077936027377159,0.164826395311027801,-0.459381338170174958
0.316918347973608849,0.166632916591818003,-0.461637068961082031
0.318758759919840595,0.168447211422906085,-0.463886051039527514
0.320599171866072286,0.170269237372016352,-0.466128264404869430
0.322439583812303976,0.172098951905167330,-0.468363689323626819
0.324279995758535666,0.173936312388662778,-0.470592306329385035
0.326120407704767357,0.175781276091077326,-0.472814096222685720
0.327960819650999047,0.177633800185243995,-0.475029040070897191
0.329801231597230793,0.179493841750239996,-0.477237119208064386
0.331641643543462483,0.181361357773370147,-0.479438315234744505
0.333482055489694174,0.183236305152148726,-0.481632610017822094
0.335322467435925919,0.185118640696279396,-0.483819985690306598
0.337162879382157554,0.187008321129635086,-0.486000424651112373
0.339003291328389245,0.188905303092231497,-0.488173909564821151
0.340843703274620990,0.190809543142201360,-0.490340423361427469
0.342684115220852681,0.192720997757768603,-0.492499949236063883
0.344524527167084371,0.194639623339213141,-0.494652470648713649
0.346364939113316117,0.196565376210839554,-0.496797971323901633
0.348205351059547752,0.198498212622939096,-0.498936435250370292
0.350045763005779442,0.200438088753751353,-0.501067846680739448
0.351886174952011188,0.202384960711419287,-0.503192190131147910
0.353726586898242878,0.204338784535946116,-0.505309450380877934
0.355566998844474569,0.206299516201141758,-0.507419612471966430
0.357407410790706315,0.208267111616574740,-0.509522661708793789
0.359247822736938005,0.210241526629511399,-0.511618583657663661
0.361088234683169640,0.212222717026858021,-0.513707364146361423
0.362928646629401330,0.214210638537096348,-0.515788989263698539
0.364769058575633076,0.216205246832214093,-0.517863445359040164
0.366609470521864766,0.218206497529633198,-0.519930719041818978
0.368449882468096512,0.220214346194134047,-0.521990797181030697
0.370290294414328203,0.222228748339772159,-0.524043666904717820
0.372130706360559838,0.224249659431795589,-0.526089315599433394
0.373971118306791528,0.226277034888552525,-0.528127730909693893
0.375811530253023274,0.228310830083394506,-0.530158900737415451
0.377651942199254964,0.230351000346582097,-0.532182813241333874
0.379492354145486654,0.232397500967173626,-0.534199456836412456
0.381332766091718400,0.234450287194919310,-0.536208820193234126
0.383173178037950091,0.236509314242144636,-0.538210892237378280
0.385013589984181726,0.238574537285627830,-0.540205662148785737
0.386854001930413471,0.240645911468477192,-0.542193119361105813
0.388694413876645162,0.242723391901996183,-0.544173253561034298
0.390534825822876852,0.244806933667547078,-0.546146054687633109
0.392375237769108598,0.246896491818407976,-0.548111512931639511
0.394215649715340288,0.248992021381622908,-0.550069618734759791
0.396056061661571923,0.251093477359846773,-0.552020362788950947
0.397896473607803669,0.253200814733183899,-0.553963736035688936
0.399736885554035359,0.255313988461018826,-0.555899729665221942
0.401577297500267050,0.257432953483845262,-0.557828335115814533
0.403417709446498796,0.259557664725083070,-0.559749544072975391
0.405258121392730486,0.261688077092890770,-0.561663348468675494
0.407098533338962121,0.263824145481973027,-0.563569740480550752
0.408938945285193867,0.265965824775380555,-0.565468712531095985
0.410779357231425557,0.268113069846299623,-0.567360257286843028
0.412619769177657247,0.270265835559841294,-0.569244367657530059
0.414460181123888993,0.272424076774815782,-0.571121036795257830
0.416300593070120684,0.274587748345508198,-0.572990258093633464
0.418141005016352374,0.276756805123438254,-0.574852025186904370
0.419981416962584009,0.278931201959118857,-0.576706331949079720
0.421821828908815755,0.281110893703806208,-0.578553172493041723
0.423662240855047445,0.283295835211238967,-0.580392541169643894
0.425502652801279191,0.285485981339373085,-0.582224432566802119
0.427343064747510881,0.287681286952109372,-0.584048841508570393
0.429183476693742572,0.289881706921009286,-0.585865763054210897
0.431023888639974206,0.292087196127006621,-0.587675192497249199
0.432864300586205952,0.294297709462112200,-0.589477125364523125
0.434704712532437643,0.296513201831102635,-0.591271557415218085
0.436545124478669333,0.298733628153213027,-0.593058484639895855
0.438385536424901079,0.300958943363808629,-0.594837903259511136
0.440225948371132769,0.303189102416060230,-0.596609809724419460
0.442066360317364404,0.305424060282601328,-0.598374200713375881
0.443906772263596150,0.307663771957181753,-0.600131073132524673
0.445747184209827840,0.309908192456313292,-0.601880424114377921
0.447587596156059531,0.312157276820902552,-0.603622251016788569
0.449428008102291277,0.314410980117881544,-0.605356551421912470
0.451268420048522967,0.316669257441820895,-0.607083323135159891
0.453108831994754657,0.318932063916543551,-0.608802564184144357
0.454949243940986348,0.321199354696720840,-0.610514272817617609
0.456789655887218038,0.323471084969467304,-0.612218447504398355
0.458630067833449728,0.325747209955921158,-0.613915086932294685
0.460470479779681474,0.328027684912816919,-0.615604190007015606
0.462310891725913164,0.330312465134050159,-0.617285755851076701
0.464151303672144855,0.332601505952230925,-0.618959783802698671
0.465991715618376545,0.334894762740229779,-0.620626273414698115
0.467832127564608236,0.337192190912714185,-0.622285224453368424
0.469672539510839926,0.339493745927674062,-0.623936636897359342
0.471512951457071672,0.341799383287936909,-0.625580510936544543
0.473353363403303362,0.344109058542679536,-0.627216846970883424
0.475193775349535052,0.346422727288920651,-0.628845645609278581
0.477034187295766798,0.348740345173013166,-0.630466907668424725
0.478874599241998433,0.351061867892119961,-0.632080634171652389
0.480715011188230124,0.353387251195681873,-0.633686826347763965
0.482555423134461814,0.355716450886878366,-0.635285485629865643
0.484395835080693560,0.358049422824075703,-0.636876613654192902
0.486236247026925250,0.360386122922263796,-0.638460212258928905
0.488076658973156996,0.362726507154487898,-0.640036283483021107
0.489917070919388631,0.365070531553264965,-0.641604829564984991
0.491757482865620321,0.367418152211992921,-0.643165852941713800
0.493597894811852012,0.369769325286351036,-0.644719356247272057
0.495438306758083757,0.372124006995685264,-0.646265342311690638
0.497278718704315448,0.374482153624389358,-0.647803814159755631
0.499119130650547138,0.376843721523269948,-0.649334775009791199
0.500959542596778884,0.379208667110905839,-0.650858228272440775
0.502799954543010519,0.381576946874995271,-0.652374177549439160
0.504640366489242265,0.383948517373693288,-0.653882626632386943
0.506480778435473900,0.386323335236936460,-0.655383579501513713
0.508321190381705645,0.388701357167760053,-0.656877040324443495
0.510161602327937391,0.391082539943603535,-0.658363013454951962
0.512002014274169026,0.393466840417606267,-0.659841503431722431
0.513842426220400661,0.395854215519891306,-0.661312514977097976
0.515682838166632407,0.398244622258838388,-0.662776052995829534
0.517523250112864153,0.400638017722350692,-0.664232122573820472
0.519363662059095788,0.403034359079102289,-0.665680728976868918
0.521204074005327533,0.405433603579786306,-0.667121877649407669
0.523044485951559279,0.407835708558340726,-0.668555574213239190
0.524884897897790914,0.410240631433173963,-0.669981824466269971
0.526725309844022660,0.412648329708371342,-0.671400634381241201
0.528565721790254295,0.415058760974895191,-0.672812010104456570
0.530406133736486041,0.417471882911775061,-0.674215957954509504
0.532246545682717787,0.419887653287283502,-0.675612484421007076
0.534086957628949421,0.422306029960102580,-0.677001596163290920
0.535927369575181167,0.424726970880483057,-0.678383300009158474
0.537767781521412802,0.427150434091384645,-0.679757602953581119
0.539608193467644548,0.429576377729616043,-0.681124512157419204
0.541448605413876183,0.432004760026953982,-0.682484034946139073
0.543289017360107929,0.434435539311256835,-0.683836178808525763
0.545129429306339675,0.436868674007568847,-0.685180951395395477
0.546969841252571309,0.439304122639207539,-0.686518360518305615
0.548810253198803055,0.441741843828845404,-0.687848414148268028
0.550650665145034690,0.444181796299578213,-0.689171120414453720
0.552491077091266436,0.446623938875984783,-0.690486487602905430
0.554331489037498182,0.449068230485171083,-0.691794524155242785
0.556171900983729817,0.451514630157808572,-0.693095238667369662
0.558012312929961563,0.453963097029159435,-0.694388639888182002
0.559852724876193197,0.456413590340088549,-0.695674736718272624
0.561693136822424943,0.458866069438069957,-0.696953538208639256
0.563533548768656578,0.461320493778176410,-0.698225053559387909
0.565373960714888324,0.463776822924063803,-0.699489292118441131
0.567214372661120070,0.466235016548937342,-0.700746263380243040
0.569054784607351705,0.468695034436514890,-0.701995976984465586
0.570895196553583451,0.471156836481973207,-0.703238442714716139
