# omega (a.u.), Re alpha(w), Im alpha(w)
0.000000000000000000,0.000000000000000000,0.000000000000000000
0.001841148405593937,0.000004897749565449,-0.002374345294415693
0.003682296811187875,0.000019590863899432,-0.004748649541796998
0.005523445216781813,0.000044078939917796,-0.007122871697238333
0.007364593622375750,0.000078361305844313,-0.009496970720091504
0.009205742027969688,0.000122437021245186,-0.011870905576093832
0.011046890433563626,0.000176304877088131,-0.014244635239495627
0.012888038839157562,0.000239963395810560,-0.016618118695186757
0.014729187244751500,0.000313410831411821,-0.018991314940822096
0.016570335650345436,0.000396645169552514,-0.021364182988945664
0.018411484055939377,0.000489664127675148,-0.023736681869113201
0.020252632461533311,0.000592465155138971,-0.026108770630012837
0.022093780867127252,0.000705045433371194,-0.028480408341583992
0.023934929272721187,0.000827401876032741,-0.030851554097133881
0.025776077678315124,0.000959531129202712,-0.033222167015451554
0.027617226083909062,0.001101429571574808,-0.035592206242919429
0.029458374489503000,0.001253093314672206,-0.037961630955621738
0.031299522895096937,0.001414518203077516,-0.040330400361449970
0.033140671300690872,0.001585699814677766,-0.042698473702205066
0.034981819706284813,0.001766633460926198,-0.045065810255695900
0.036822968111878754,0.001957314187119109,-0.047432369337834034
0.038664116517472688,0.002157736772688122,-0.049798110304724724
0.040505264923066622,0.002367895731508700,-0.052162992554753304
0.042346413328660557,0.002587785312224627,-0.054526975530667501
0.044187561734254505,0.002817399498584922,-0.056890018721655153
0.046028710139848439,0.003056732009801995,-0.059252081665416609
0.047869858545442373,0.003305776300918314,-0.061613123950232759
0.049711006951036314,0.003564525563196630,-0.063973105217027218
0.051552155356630248,0.003832972724515614,-0.066331985161423371
0.053393303762224190,0.004111110449791278,-0.068689723535795555
0.055234452167818124,0.004398931141406666,-0.071046280151314409
0.057075600573412065,0.004696426939658694,-0.073401614879986241
0.058916748979005999,0.005003589723220812,-0.075755687656685500
0.060757897384599933,0.005320411109620861,-0.078108458481181933
0.062599045790193875,0.005646882455734100,-0.080459887420159484
0.064440194195787809,0.005982994858288393,-0.082809934609229446
0.066281342601381743,0.006328739154390800,-0.085158560254935997
0.068122491006975691,0.006684105922062200,-0.087505724636754351
0.069963639412569625,0.007049085480791377,-0.089851388109081595
0.071804787818163560,0.007423667892101951,-0.092195511103219593
0.073645936223757508,0.007807842960134852,-0.094538054129350110
0.075487084629351428,0.008201600232245927,-0.096878977778501713
0.077328233034945376,0.008604928999616589,-0.099218242724508313
0.079169381440539324,0.009017818297879947,-0.101555809725959290
0.081010529846133245,0.009440256907764384,-0.103891639628140742
0.082851678251727193,0.009872233355745575,-0.106225693364968191
0.084692826657321113,0.010313735914719272,-0.108557931960909709
0.086533975062915061,0.010764752604681387,-0.110888316532900169
0.088375123468509009,0.011225271193432414,-0.113216808292245757
0.090216271874102930,0.011695279197284480,-0.115543368546518962
0.092057420279696878,0.012174763881791123,-0.117867958701443745
0.093898568685290812,0.012663712262488564,-0.120190540262770762
0.095739717090884746,0.013162111105647712,-0.122511074838142220
0.097580865496478694,0.013669946929047827,-0.124829524138946324
0.099422013902072628,0.014187206002754372,-0.127145849982161468
0.101263162307666563,0.014713874349918755,-0.129460014292189507
0.103104310713260497,0.015249937747585908,-0.131771979102678155
0.104945459118854445,0.015795381727520024,-0.134081706558332348
0.106786607524448379,0.016350191577041939,-0.136389158916714215
0.108627755930042313,0.016914352339878848,-0.138694298550032041
0.110468904335636248,0.017487848817027755,-0.140997087946917427
0.112310052741230182,0.018070665567634675,-0.143297489714190207
0.114151201146824130,0.018662786909884831,-0.145595466578612914
0.115992349552418050,0.019264196921903662,-0.147890981388631298
0.117833497958011998,0.019874879442676744,-0.150183997116104445
0.119674646363605947,0.020494818072979391,-0.152474476858021069
0.121515794769199867,0.021123996176314594,-0.154762383838204565
0.123356943174793815,0.021762396879873868,-0.157047681409004353
0.125198091580387749,0.022410003075501457,-0.159330333052974810
0.127039239985981683,0.023066797420673784,-0.161610302384541604
0.128880388391575618,0.023732762339496557,-0.163887553151654569
0.130721536797169552,0.024407880023705024,-0.166162049237426890
0.132562685202763486,0.025092132433684286,-0.168433754661762247
0.134403833608357448,0.025785501299495840,-0.170702633582966834
0.136244982013951382,0.026487968121922983,-0.172968650299348631
0.138086130419545317,0.027199514173520858,-0.175231769250803221
0.139927278825139251,0.027920120499681914,-0.177491955020384673
0.141768427230733185,0.028649767919715387,-0.179749172335863100
0.143609575636327119,0.029388437027933798,-0.182003386071267842
0.145450724041921081,0.030136108194752240,-0.184254561248416243
0.147291872447515015,0.030892761567801828,-0.186502663038428579
0.149133020853108950,0.031658377073052503,-0.188747656763227467
0.150974169258702856,0.032432934415945316,-0.190989507897023070
0.152815317664296818,0.033216413082538004,-0.193228182067784554
0.154656466069890752,0.034008792340661967,-0.195463645058694291
0.156497614475484687,0.034810051241089032,-0.197695862809589618
0.158338762881078648,0.035620168618708072,-0.199924801418387976
0.160179911286672555,0.036439123093714124,-0.202150427142496814
0.162021059692266489,0.037266893072806798,-0.204372706400209742
0.163862208097860451,0.038103456750400208,-0.206591605772084547
0.165703356503454385,0.038948792109840709,-0.208807092002308625
0.167544504909048320,0.039802876924638846,-0.211019132000046489
0.169385653314642226,0.040665688759708080,-0.213227692840773447
0.171226801720236188,0.041537204972613387,-0.215432741767591696
0.173067950125830122,0.042417402714831784,-0.217634246192531938
0.174909098531424056,0.043306258933022479,-0.219832173697838557
0.176750246937018018,0.044203750370303233,-0.222026492037238371
0.178591395342611925,0.045109853567541117,-0.224217169137193584
0.180432543748205859,0.046024544864646980,-0.226404173098139178
0.182273692153799821,0.046947800401885162,-0.228587472195702579
0.184114840559393755,0.047879596121188396,-0.230767034881908167
0.185955988964987690,0.048819907767481546,-0.232942829786364797
0.187797137370581624,0.049768710890016110,-0.235114825717436943
0.189638285776175558,0.050725980843712742,-0.237282991663399723
0.191479434181769492,0.051691692790511543,-0.239447296793575987
0.193320582587363454,0.052665821700731814,-0.241607710459458946
0.195161730992957388,0.053648342354440950,-0.243764202195815127
0.197002879398551295,0.054639229342826980,-0.245916741721773274
0.198844027804145257,0.055638457069586630,-0.248065298941894719
0.200685176209739191,0.056645999752314553,-0.250209843947227617
0.202526324615333125,0.057661831423904943,-0.252350347016343457
0.204367473020927087,0.058685925933957162,-0.254486778616357601
0.206208621426520994,0.059718256950192297,-0.256619109403931789
0.208049769832114928,0.060758797959875779,-0.258747310226260352
0.209890918237708890,0.061807522271245169,-0.260871352122038658
0.211732066643302824,0.062864403014949499,-0.262991206322414905
0.213573215048896758,0.063929413145493136,-0.265106844251923712
0.215414363454490665,0.065002525442684145,-0.267218237529404490
0.217255511860084627,0.066083712513094930,-0.269325357968900392
0.219096660265678561,0.067172946791526536,-0.271428177580540886
0.220937808671272495,0.068270200542476844,-0.273526668571407228
0.222778957076866457,0.069375445861620214,-0.275620803346380672
0.224620105482460364,0.070488654677290652,-0.277710554508971974
0.226461253888054298,0.071609798751972056,-0.279795894862135963
0.228302402293648260,0.072738849683791532,-0.281876797409066071
0.230143550699242194,0.073875778908024062,-0.283953235353973488
0.231984699104836101,0.075020557698597057,-0.286025182102847941
0.233825847510430063,0.076173157169605488,-0.288092611264200826
0.235666995916023997,0.077333548276828118,-0.290155496649792233
0.237508144321617931,0.078501701819252548,-0.292213812275338658
0.239349292727211893,0.079677588440603200,-0.294267532361205064
0.241190441132805827,0.080861178630877037,-0.296316631333077951
0.243031589538399734,0.082052442727878913,-0.298361083822622497
0.244872737943993696,0.083251350918768244,-0.300400864668121603
0.246713886349587630,0.084457873241605877,-0.302435948915096564
0.248555034755181564,0.085671979586908142,-0.304466311816912305
0.250396183160775498,0.086893639699200886,-0.306491928835363803
0.252237331566369460,0.088122823178584844,-0.308512775641245185
0.254078479971963367,0.089359499482298738,-0.310528828114902400
0.255919628377557329,0.090603637926289421,-0.312540062346767844
0.257760776783151235,0.091855207686784734,-0.314546454637877781
0.259601925188745197,0.093114177801871825,-0.316547981500372444
0.261443073594339104,0.094380517173075801,-0.318544619657978645
0.263284221999933066,0.095654194566946446,-0.320536346046476739
0.265125370405526972,0.096935178616643386,-0.322523137814147098
0.266966518811120934,0.098223437823527368,-0.324504972322203600
0.268807667216714896,0.099518940558755709,-0.326481827145206294
0.270648815622308803,0.100821655064875074,-0.328453680071458975
0.272489964027902765,0.102131549457423920,-0.330420509103389493
0.274331112433496671,0.103448591726534048,-0.332382292457912287
0.276172260839090633,0.104772749738534565,-0.334339008566775286
0.278013409244684540,0.106103991237558593,-0.336290636076887806
0.279854557650278502,0.107442283847153514,-0.338237153850634242
0.281695706055872463,0.108787595071890897,-0.340178540966167842
0.283536854461466370,0.110139892298980829,-0.342114776717691305
0.285378002867060332,0.111499142799887097,-0.344045840615716692
0.287219151272654238,0.112865313731943084,-0.345971712387312447
0.289060299678248200,0.114238372139971733,-0.347892371976330883
0.290901448083842162,0.115618284957904327,-0.349807799543620568
0.292742596489436069,0.117005019010401140,-0.351717975467222221
0.294583744895030031,0.118398541014478345,-0.353622880342547297
0.296424893300623937,0.119798817581124498,-0.355522494982541237
0.298266041706217899,0.121205815216931426,-0.357416800417829916
0.300107190111811861,0.122619500325716280,-0.359305777896849199
0.301948338517405712,0.124039839210148828,-0.361189408885960350
0.303789486922999674,0.125466798073377572,-0.363067675069546514
0.305630635328593636,0.126900343020658807,-0.364940558350095590
0.307471783734187543,0.128340440060979361,-0.366808040848266070
0.309312932139781505,0.129787055108690680,-0.368670104902936613
0.311154080545375467,0.131240153985131169,-0.370526733071241787
0.312995228950969373,0.132699702420256527,-0.372377908128588342
0.314836377356563335,0.134165666054266830,-0.374223613068660643
0.316677525762157297,0.135638010439234791,-0.376063831103406521
0.318518674167751148,0.137116701040728622,-0.377898545663009511
0.320359822573345110,0.138601703239443375,-0.379727740395846280
0.322200970978939072,0.140092982332823107,-0.381551399168425898
0.324042119384532978,0.141590503536687423,-0.383369506065318277
0.325883267790126940,0.143094231986854142,-0.385182045389063421
0.327724416195720902,0.144604132740763336,-0.386989001660067500
0.329565564601314809,0.146120170779097391,-0.388790359616484615
0.331406713006908771,0.147642311007403326,-0.390586104214082519
0.333247861412502677,0.149170518257710216,-0.392376220626093286
0.335089009818096639,0.150704757290149621,-0.394160694243050669
0.336930158223690601,0.152244992794566908,-0.395939510672612849
0.338771306629284452,0.153791189392139649,-0.397712655739367704
0.340612455034878414,0.155343311636986614,-0.399480115484629916
0.342453603440472376,0.156901324017782590,-0.401241876166216482
0.344294751846066283,0.158465190959362151,-0.402997924258213347
0.346135900251660245,0.160034876824328015,-0.404748246450726212
0.347977048657254207,0.161610345914654563,-0.406492829649616916
0.349818197062848113,0.163191562473290641,-0.408231660976226929
0.351659345468442075,0.164778490685755064,-0.409964727767086146
0.353500493874036037,0.166371094681736664,-0.411692017573610236
0.355341642279629888,0.167969338536684359,-0.413413518161779570
0.357182790685223850,0.169573186273401622,-0.415129217511812088
0.359023939090817812,0.171182601863630768,-0.416839103817815027
0.360865087496411718,0.172797549229639885,-0.418543165487429980
0.362706235902005680,0.174417992245802983,-0.420241391141460308
0.364547384307599642,0.176043894740178342,-0.421933769613488829
0.366388532713193549,0.177675220496084224,-0.423620289949479534
0.368229681118787511,0.179311933253669453,-0.425300941407370681
0.370070829524381473,0.180953996711481963,-0.426975713456650363
0.371911977929975379,0.182601374528031879,-0.428644595777923076
0.373753126335569286,0.184254030323351692,-0.430307578262464352
0.375594274741163248,0.185911927680554673,-0.431964651011759571
0.377435423146757154,0.187575030147383526,-0.433615804337033228
0.379276571552351116,0.189243301237763117,-0.435261028758766599
0.381117719957945078,0.190916704433341577,-0.436900315006202133
0.382958868363538985,0.192595203185030428,-0.438533654016836860
0.384800016769132947,0.194278760914542326,-0.440161036935902639
0.386641165174726908,0.195967341015918284,-0.441782455115837636
0.388482313580320815,0.197660906857057922,-0.443397900115743815
0.390323461985914777,0.199359421781238194,-0.445007363700835046
0.392164610391508739,0.201062849108633368,-0.446610837841872055
0.394005758797102590,0.202771152137823402,-0.448208314714587885
0.395846907202696552,0.204484294147305401,-0.449799786699102533
0.397688055608290514,0.206202238396993254,-0.451385246379325700
0.399529204013884420,0.207924948129714321,-0.452964686542348838
0.401370352419478382,0.209652386572703436,-0.454538100177829252
0.403211500825072344,0.211384516939087691,-0.456105480477358993
0.405052649230666251,0.213121302429369774,-0.457666820833828925
0.406893797636260213,0.214862706232901879,-0.459222114840777906
0.408734946041854175,0.216608691529355524,-0.460771356291735934
0.410576094447448026,0.218359221490188493,-0.462314539179553508
0.412417242853041988,0.220114259280103530,-0.463851657695724395
0.414258391258635950,0.221873768058498788,-0.465382706229697574
0.416099539664229856,0.223637710980917948,-0.466907679368178730
0.417940688069823818,0.225406051200491231,-0.468426571894424326
0.419781836475417780,0.227178751869369061,-0.469939378787524786
0.421622984881011686,0.228955776140153444,-0.471446095221678907
0.423464133286605648,0.230737087167320970,-0.472946716565460057
0.425305281692199555,0.232522648108636210,-0.474441238381072661
0.427146430097793517,0.234312422126568831,-0.475929656423600134
0.428987578503387423,0.236106372389690566,-0.477411966640243823
0.430828726908981330,0.237904462074078948,-0.478888165169555180
0.432669875314575292,0.239706654364703731,-0.480358248340657712
0.434511023720169254,0.241512912456816636,-0.481822212672460226
0.436352172125763160,0.243323199557323483,-0.483280054872865128
0.438193320531357122,0.245137478886159998,-0.484731771837965120
0.440034468936951084,0.246955713677653566,-0.486177360651234680
0.441875617342544991,0.248777867181882356,-0.487616818582711831
0.443716765748138953,0.250603902666025724,-0.489050143088174405
0.445557914153732915,0.252433783415706825,-0.490477331808307160
0.447399062559326766,0.254267472736329991,-0.491898382567861669
0.449240210964920728,0.256104933954410030,-0.493313293374812001
0.451081359370514690,0.257946130418894748,-0.494722062419496567
0.452922507776108596,0.259791025502479123,-0.496124688073762476
0.454763656181702558,0.261639582602914755,-0.497521168890094401
0.456604804587296520,0.263491765144308832,-0.498911503600741713
0.458445952992890426,0.265347536578417198,-0.500295691116836805
0.460287101398484388,0.267206860385930278,-0.501673730527510520
0.462128249804078350,0.269069700077752216,-0.503045621098994422
0.463969398209672201,0.270936019196268918,-0.504411362273725850
0.465810546615266163,0.272805781316613871,-0.505770953669438916
0.467651695020860125,0.274678950047919423,-0.507124395078254242
0.469492843426454032,0.276555489034568835,-0.508471686465761796
0.471333991832047994,0.278435361957432570,-0.509812827970097859
0.473175140237641956,0.280318532535101361,-0.511147819901015654
0.475016288643235862,0.282204964525110014,-0.512476662738952760
0.476857437048829824,0.284094621725155039,-0.513799357134091084
0.478698585454423786,0.285987467974300080,-0.515115903905412842
0.480539733860017693,0.287883467154178008,-0.516426304039751205
0.482380882265611655,0.289782583190182963,-0.517730558690835174
0.484222030671205561,0.291684780052652859,-0.519028669178332791
0.486063179076799468,0.293590021758048381,-0.520320636986884466
0.487904327482393430,0.295498272370117776,-0.521606463765137418
0.489745475887987392,0.297409496001057261,-0.522886151324770343
0.491586624293581298,0.299323656812663041,-0.524159701639519415
0.493427772699175260,0.301240719017474456,-0.525427116844194964
0.495268921104769222,0.303160646879907514,-0.526688399233696591
0.497110069510363128,0.305083404717383044,-0.527943551262025412
0.498951217915957090,0.307008956901442642,-0.529192575541288845
0.500792366321550997,0.308937267858861164,-0.530435474840706300
0.502633514727144903,0.310868302072744129,-0.531672252085607311
0.504474663132738921,0.312802024083624342,-0.532902910356428894
0.506315811538332827,0.314738398490543969,-0.534127452887707133
0.508156959943926734,0.316677389952130128,-0.535345883067068984
0.509998108349520751,0.318618963187663196,-0.536558204434216646
0.511839256755114658,0.320563082978134073,-0.537764420679913036
0.513680405160708564,0.322509714167296180,-0.538964535644960829
0.515521553566302471,0.324458821662703401,-0.540158553319182277
0.517362701971896488,0.326410370436747199,-0.541346477840392692
0.519203850377490395,0.328364325527675083,-0.542528313493374714
0.521044998783084301,0.330320652040612006,-0.543704064708846913
0.522886147188678208,0.332279315148562626,-0.544873736062433167
0.524727295594272225,0.334240280093410391,-0.546037332273628495
0.526568443999866131,0.336203512186906583,-0.547194858204760881
0.528409592405460038,0.338168976811651090,-0.548346318859955106
0.530250740811053944,0.340136639422062736,-0.549491719384090582
0.532091889216647962,0.342106465545343963,-0.550631065061761849
0.533933037622241868,0.344078420782432004,-0.551764361316230745
0.535774186027835775,0.346052470808945467,-0.552891613708385687
0.537615334433429792,0.348028581376121804,-0.554012827935691732
0.539456482839023699,0.350006718311740739,-0.555128009831143188
0.541297631244617605,0.351986847521046031,-0.556237165362214347
0.543138779650211623,0.353968934987654971,-0.557340300629809549
0.544979928055805529,0.355952946774455770,-0.558437421867210126
0.546821076461399436,0.357938849024503458,-0.559528535439022812
0.548662224866993342,0.359926607961898293,-0.560613647840125795
0.550503373272587249,0.361916189892664608,-0.561692765694614793
0.552344521678181266,0.363907561205611407,-0.562765895754747558
0.554185670083775173,0.365900688373189009,-0.563833044899888725
0.556026818489369079,0.367895537952339091,-0.564894220135453984
0.557867966894963097,0.369892076585329188,-0.565949428591853487
0.559709115300557003,0.371890271000583361,-0.566998677523435357
0.561550263706150909,0.373890088013503208,-0.568041974307428310
0.563391412111744927,0.375891494527277159,-0.569079326442886058
0.565232560517338833,0.377894457533683614,-0.570110741549628597
0.567073708922932740,0.379898944113885084,-0.571136227367186389
0.568914857328526646,0.381904921439211897,-0.572155791753743759
0.570756005734120664,0.383912356771936580,-0.573169442685082076
