# omega (a.u.), Re alpha(w), Im alpha(w)
0.000367493221756550,0.000000195127554252,-0.000473920631875188
0.002207905167988250,0.000007043351775901,-0.002847311283054790
0.004048317114219949,0.000023679047243831,-0.005220652750187838
0.005888729060451649,0.000050101757950381,-0.007593904038279504
0.007729141006683348,0.000086310759629516,-0.009967024157007957
0.009569552952915049,0.000132305059799001,-0.012339972122848169
0.011409964899146748,0.000188083397818248,-0.014712706961194939
0.013250376845378447,0.000253644244964056,-0.017085187708485036
0.015090788791610148,0.000328985804522210,-0.019457373414318142
0.016931200737841847,0.000414106011890427,-0.021829223143576451
0.018771612684073548,0.000509002534703726,-0.024200695978542665
0.020612024630305245,0.000613672772969682,-0.026571751021016096
0.022452436576536946,0.000728113859225109,-0.028942347394426870
0.024292848522768647,0.000852322658701961,-0.031312444245947715
0.026133260469000344,0.000986295769516017,-0.033682000748603384
0.027973672415232041,0.001130029522864750,-0.036050976103377270
0.029814084361463745,0.001283519983245949,-0.038419329541315175
0.031654496307695443,0.001446762948690845,-0.040787020325625936
0.033494908253927147,0.001619753951008907,-0.043154007753778575
0.035335320200158844,0.001802488256055763,-0.045520251159596112
0.037175732146390542,0.001994960864009844,-0.047885709915345256
0.039016144092622246,0.002197166509667990,-0.050250343433822377
0.040856556038853936,0.002409099662756735,-0.052614111170435025
0.042696967985085640,0.002630754528257151,-0.054976972625279293
0.044537379931317345,0.002862125046747402,-0.057338887345212065
0.046377791877549042,0.003103204894759382,-0.059699814925918950
0.048218203823780746,0.003353987485151196,-0.062059715013976592
0.050058615770012437,0.003614465967495851,-0.064418547308910071
0.051899027716244141,0.003884633228483558,-0.066776271565244821
0.053739439662475845,0.004164481892340641,-0.069132847594552280
0.055579851608707535,0.004454004321263725,-0.071488235267490291
0.057420263554939240,0.004753192615867074,-0.073842394515837170
0.059260675501170937,0.005062038615650131,-0.076195285334518970
0.061101087447402641,0.005380533899474522,-0.078546867783631097
0.062941499393634345,0.005708669786056794,-0.080897101990452192
0.064781911339866036,0.006046437334482611,-0.083245948151451768
0.066622323286097740,0.006393827344728269,-0.085593366534290394
0.068462735232329444,0.006750830358199460,-0.087939317479812720
0.070303147178561134,0.007117436658288585,-0.090283761404032450
0.072143559124792839,0.007493636270939379,-0.092626658800110256
0.073983971071024529,0.007879418965234936,-0.094967970240323357
0.075824383017256219,0.008274774253994100,-0.097307656378026783
0.077664794963487938,0.008679691394385316,-0.099645677949606729
0.079505206909719628,0.009094159388555416,-0.101981995776424944
0.081345618855951318,0.009518166984267992,-0.104316570766754824
0.083186030802183022,0.009951702675564885,-0.106649363917708254
0.085026442748414727,0.010394754703435026,-0.108980336317153509
0.086866854694646431,0.010847311056500218,-0.111309449145623532
0.088707266640878121,0.011309359471714870,-0.113636663678215621
0.090547678587109812,0.011780887435078307,-0.115961941286480241
0.092388090533341530,0.012261882182366110,-0.118285243440300933
0.094228502479573220,0.012752330699868310,-0.120606531709763820
0.096068914425804924,0.013252219725147786,-0.122925767767017038
0.097909326372036629,0.013761535747810140,-0.125242913388119465
0.099749738318268319,0.014280265010285042,-0.127557930454879453
0.101590150264500023,0.014808393508626918,-0.129870780956682502
0.103430562210731727,0.015345906993321589,-0.132181426992307671
0.105270974156963418,0.015892790970114770,-0.134489830771734098
0.107111386103195122,0.016449030700848660,-0.136795954617934784
0.108951798049426812,0.017014611204312823,-0.139099760968659919
0.110792209995658517,0.017589517257108563,-0.141401212378208879
0.112632621941890221,0.018173733394529337,-0.143700271519189321
0.114473033888121911,0.018767243911447153,-0.145996901184265476
0.116313445834353629,0.019370032863222746,-0.148291064287894486
0.118153857780585320,0.019982084066617542,-0.150582723868049106
0.119994269726817010,0.020603381100725553,-0.152871843087930087
0.121834681673048728,0.021233907307915838,-0.155158385237664259
0.123675093619280418,0.021873645794788749,-0.157442313735991130
0.125515505565512137,0.022522579433142929,-0.159723592131936099
0.127355917511743827,0.023180690860955616,-0.162002184106470909
0.129196329457975517,0.023847962483375340,-0.164278053474161190
0.131036741404207235,0.024524376473728248,-0.166551164184800343
0.132877153350438926,0.025209914774535266,-0.168821480325030054
0.134717565296670616,0.025904559098539504,-0.171088966119948171
0.136557977242902306,0.026608290929749548,-0.173353585934701654
0.138398389189134025,0.027321091524492878,-0.175615304276066919
0.140238801135365715,0.028042941912479802,-0.177874085794015063
0.142079213081597405,0.028773822897880521,-0.180129895283264507
0.143919625027829096,0.029513715060413892,-0.182382697684818129
0.145760036974060814,0.030262598756447972,-0.184632458087486850
0.147600448920292504,0.031020454120109075,-0.186879141729398679
0.149440860866524222,0.031787261064405950,-0.189122713999493403
0.151281272812755913,0.032562999282362837,-0.191363140439001655
0.153121684758987603,0.033347648248163594,-0.193600386742911079
0.154962096705219321,0.034141187218308590,-0.195834418761416024
0.156802508651450984,0.034943595232780039,-0.198065202501352150
0.158642920597682702,0.035754851116217241,-0.200292704127618099
0.160483332543914420,0.036574933479110470,-0.202516889964579005
0.162323744490146082,0.037403820718990045,-0.204737726497456862
0.164164156436377801,0.038241491021643217,-0.206955180373704750
0.166004568382609519,0.039087922362327165,-0.209169218404365725
0.167844980328841209,0.039943092507001128,-0.211379807565415467
0.169685392275072899,0.040806979013563380,-0.213586914999090632
0.171525804221304617,0.041679559233102216,-0.215790508015200028
0.173366216167536308,0.042560810311150693,-0.217990554092420769
0.175206628113767998,0.043450709188959526,-0.220187020879578033
0.177047040059999716,0.044349232604770639,-0.222379876196909548
0.178887452006231407,0.045256357095106635,-0.224569088037312292
0.180727863952463097,0.046172058996067578,-0.226754624567575613
0.182568275898694815,0.047096314444634947,-0.228936454129595679
0.184408687844926505,0.048029099379986610,-0.231114545241574487
0.186249099791158196,0.048970389544821434,-0.233288866599203060
0.188089511737389914,0.049920160486690866,-0.235459387076827675
0.189929923683621604,0.050878387559339808,-0.237626075728598452
0.191770335629853322,0.051845045924056546,-0.239788901789603742
0.193610747576084985,0.052820110551031821,-0.241947834676985885
0.195451159522316703,0.053803556220721957,-0.244102843991041041
0.197291571468548421,0.054795357525227441,-0.246253899516301639
0.199131983414780084,0.055795488869672068,-0.248400971222603240
0.200972395361011802,0.056803924473595710,-0.250544029266133117
0.202812807307243520,0.057820638372350477,-0.252683043990462930
0.204653219253475183,0.058845604418507329,-0.254817985927563051
0.206493631199706901,0.059878796283272251,-0.256948825798802849
0.208334043145938619,0.060920187457901877,-0.259075534515929629
0.210174455092170281,0.061969751255135624,-0.261198083182034135
0.212014867038402000,0.063027460810629335,-0.263316443092497410
0.213855278984633718,0.064093289084397861,-0.265430585735920099
0.215695690930865380,0.065167208862263515,-0.267540482795035395
0.217536102877097098,0.066249192757313044,-0.269646106147604592
0.219376514823328816,0.067339213211359980,-0.271747427867294666
0.221216926769560479,0.068437242496412115,-0.273844420224540197
0.223057338715792197,0.069543252716148349,-0.275937055687385691
0.224897750662023888,0.070657215807399240,-0.278025306922312587
0.226738162608255606,0.071779103541636136,-0.280109146795048003
0.228578574554487296,0.072908887526461949,-0.282188548371356485
0.230418986500718986,0.074046539207115222,-0.284263484917813558
0.232259398446950704,0.075192029867969121,-0.286333929902563900
0.234099810393182395,0.076345330634046998,-0.288399856996058690
0.235940222339414085,0.077506412472536479,-0.290461240071780202
0.237780634285645803,0.078675246194311460,-0.292518053206944684
0.239621046231877494,0.079851802455458032,-0.294570270683189861
0.241461458178109184,0.081036051758804933,-0.296617866987245626
0.243301870124340902,0.082227964455463903,-0.298660816811586238
0.245142282070572592,0.083427510746365729,-0.300699095055065313
0.246982694016804283,0.084634660683811036,-0.302732676823533609
0.248823105963036001,0.085849384173016158,-0.304761537430439655
0.250663517909267719,0.087071650973670839,-0.306785652397413067
0.252503929855499409,0.088301430701496361,-0.308804997454829921
0.254344341801731100,0.089538692829806865,-0.310819548542361102
0.256184753747962790,0.090783406691079996,-0.312829281809504256
0.258025165694194480,0.092035541478523594,-0.314834173616097446
0.259865577640426171,0.093295066247652159,-0.316834200532815025
0.261705989586657917,0.094561949917865443,-0.318829339341648421
0.263546401532889552,0.095836161274028081,-0.320819567036367270
0.265386813479121297,0.097117668968055723,-0.322804860822965944
0.267227225425352988,0.098406441520503124,-0.324785198120089602
0.269067637371584678,0.099702447322153248,-0.326760556559447191
0.270908049317816368,0.101005654635612993,-0.328730913986204132
0.272748461264048114,0.102316031596908455,-0.330696248459359188
0.274588873210279749,0.103633546217084718,-0.332656538252105338
0.276429285156511495,0.104958166383807769,-0.334611761852171563
0.278269697102743185,0.106289859862967823,-0.336561897962149970
0.280110109048974876,0.107628594300286554,-0.338506925499804101
0.281950520995206566,0.108974337222924156,-0.340446823598362813
0.283790932941438312,0.110327056041090138,-0.342381571606794166
0.285631344887670002,0.111686718049657130,-0.344311149090066326
0.287471756833901693,0.113053290429771941,-0.346235535829389041
0.289312168780133383,0.114426740250474182,-0.348154711822439678
0.291152580726365073,0.115807034470309947,-0.350068657283572837
0.292992992672596764,0.117194139938952169,-0.351977352644013031
0.294833404618828510,0.118588023398820033,-0.353880778552031650
0.296673816565060200,0.119988651486699918,-0.355778915873106338
0.298514228511291890,0.121395990735362988,-0.357671745690065712
0.300354640457523636,0.122810007575193489,-0.359559249303217698
0.302195052403755271,0.124230668335807440,-0.361441408230459171
0.304035464349986961,0.125657939247677319,-0.363318204207374096
0.305875876296218652,0.127091786443756127,-0.365189619187311298
0.307716288242450398,0.128532175961101891,-0.367055635341448638
0.309556700188682088,0.129979073742501561,-0.368916235058841857
0.311397112134913834,0.131432445638095224,-0.370771400946455332
0.313237524081145469,0.132892257407001613,-0.372621115829179450
0.315077936027377159,0.134358474718941884,-0.374465362749831499
0.316918347973608849,0.135831063155862186,-0.376304124969140619
0.318758759919840595,0.137309988213559719,-0.378137385965718109
0.320599171866072286,0.138795215303303743,-0.379965129436011739
0.322439583812303976,0.140286709753457389,-0.381787339294245742
0.324279995758535666,0.141784436811101699,-0.383603999672344598
0.326120407704767357,0.143288361643653495,-0.385415094919841383
0.327960819650999047,0.144798449340485358,-0.387220609603774357
0.329801231597230793,0.146314664914545034,-0.389020528508563113
0.331641643543462483,0.147836973303971775,-0.390814836635875240
0.333482055489694174,0.149365339373712047,-0.392603519204475393
0.335322467435925919,0.150899727917133186,-0.394386561650060363
0.337162879382157554,0.152440103657637632,-0.396163949625079781
0.339003291328389245,0.153986431250271283,-0.397935668998542547
0.340843703274620990,0.155538675283333316,-0.399701705855808387
0.342684115220852681,0.157096800279985183,-0.401462046498365810
0.344524527167084371,0.158660770699851406,-0.403216677443595961
0.346364939113316117,0.160230550940625854,-0.404965585424522045
0.348205351059547752,0.161806105339670242,-0.406708757389543762
0.350045763005779442,0.163387398175613152,-0.408446180502162082
0.351886174952011188,0.164974393669943681,-0.410177842140684701
0.353726586898242878,0.166567055988606827,-0.411903729897921456
0.355566998844474569,0.168165349243590057,-0.413623831580867185
0.357407410790706315,0.169769237494514447,-0.415338135210366277
0.359247822736938005,0.171378684750214894,-0.417046629020770498
0.361088234683169640,0.172993654970324595,-0.418749301459578227
0.362928646629401330,0.174614112066850902,-0.420446141187064082
0.364769058575633076,0.176240019905750361,-0.422137137075893454
0.366609470521864766,0.177871342308500657,-0.423822278210725711
0.368449882468096512,0.179508043053667909,-0.425501553887804418
0.370290294414328203,0.181150085878470229,-0.427174953614533892
0.372130706360559838,0.182797434480339999,-0.428842467109045056
0.373971118306791528,0.184450052518479152,-0.430504084299747736
0.375811530253023274,0.186107903615411019,-0.432159795324871032
0.377651942199254964,0.187770951358532251,-0.433809590531991529
0.379492354145486654,0.189439159301654447,-0.435453460477549681
0.381332766091718400,0.191112490966546533,-0.437091395926354764
0.383173178037950091,0.192790909844470698,-0.438723387851076951
0.385013589984181726,0.194474379397713115,-0.440349427431728890
0.386854001930413471,0.196162863061113468,-0.441969506055135020
0.388694413876645162,0.197856324243585652,-0.443583615314390445
0.390534825822876852,0.199554726329637472,-0.445191747008306604
0.392375237769108598,0.201258032680883103,-0.446793893140848997
0.394215649715340288,0.202966206637552604,-0.448390045920560532
0.396056061661571923,0.204679211519994964,-0.449980197759976885
0.397896473607803669,0.206397010630176903,-0.451564341275028536
0.399736885554035359,0.208119567253175874,-0.453142469284433802
0.401577297500267050,0.209846844658669790,-0.454714574809081673
0.403417709446498796,0.211578806102419192,-0.456280651071402588
0.405258121392730486,0.213315414827744187,-0.457840691494730778
0.407098533338962121,0.215056634066998265,-0.459394689702654790
0.408938945285193867,0.216802427043034457,-0.460942639518360509
0.410779357231425557,0.218552756970665757,-0.462484534963960914
0.412619769177657247,0.220307587058121673,-0.464020370259818460
0.414460181123888993,0.222066880508496212,-0.465550139823858400
0.416300593070120684,0.223830600521194439,-0.467073838270869790
0.418141005016352374,0.225598710293367338,-0.468591460411800442
0.419981416962584009,0.227371173021344991,-0.470103001253039887
0.421821828908815755,0.229147951902064134,-0.471608455995695675
0.423662240855047445,0.230929010134483831,-0.473107820034857629
0.425502652801279191,0.232714310921001699,-0.474601088958857831
0.427343064747510881,0.234503817468861425,-0.476088258548516330
0.429183476693742572,0.236297492991550478,-0.477569324776383419
0.431023888639974206,0.238095300710197189,-0.479044283805969862
0.432864300586205952,0.239897203854959107,-0.480513131990970732
0.434704712532437643,0.241703165666398934,-0.481975865874480214
0.436545124478669333,0.243513149396866274,-0.483432482188198842
0.438385536424901079,0.245327118311858883,-0.484882977851632035
0.440225948371132769,0.247145035691388709,-0.486327349971282352
0.442066360317364404,0.248966864831332513,-0.487765595839832033
0.443906772263596150,0.250792569044781033,-0.489197712935320106
0.445747184209827840,0.252622111663377835,-0.490623698920309825
0.447587596156059531,0.254455456038653494,-0.492043551641051180
0.449428008102291277,0.256292565543352557,-0.493457269126634235
0.451268420048522967,0.258133403572748776,-0.494864849588137146
0.453108831994754657,0.259977933545962103,-0.496266291417765681
0.454949243940986348,0.261826118907257488,-0.497661593187987139
0.456789655887218038,0.263677923127346836,-0.499050753650657208
0.458630067833449728,0.265533309704675813,-0.500433771736140565
0.460470479779681474,0.267392242166707039,-0.501810646552424133
0.462310891725913164,0.269254684071194794,-0.503181377384225637
0.464151303672144855,0.271120599007451335,-0.504545963692094368
0.465991715618376545,0.272989950597607556,-0.505904405111508471
0.467832127564608236,0.274862702497864986,-0.507256701451961334
0.469672539510839926,0.276738818399739739,-0.508602852696049546
0.471512951457071672,0.278618262031297581,-0.509942858998548632
0.473353363403303362,0.280500997158385224,-0.511276720685486241
0.475193775349535052,0.282386987585848237,-0.512604438253210115
0.477034187295766798,0.284276197158747135,-0.513926012367450502
0.478874599241998433,0.286168589763560133,-0.515241443862376025
0.480715011188230124,0.288064129329379637,-0.516550733739647328
0.482555423134461814,0.289962779829103623,-0.517853883167462725
0.484395835080693560,0.291864505280615583,-0.519150893479602193
0.486236247026925250,0.293769269747955419,-0.520441766174463472
0.488076658973156996,0.295677037342487348,-0.521726502914096613
0.489917070919388631,0.297587772224053970,-0.523005105523232094
0.491757482865620321,0.299501438602125136,-0.524277575988306044
0.493597894811852012,0.301418000736938974,-0.525543916456480353
0.495438306758083757,0.303337422940632429,-0.526804129234658580
0.497278718704315448,0.305259669578365478,-0.528058216788499513
0.499119130650547138,0.307184705069435238,-0.529306181741425075
0.500959542596778884,0.309112493888383133,-0.530548026873625789
0.502799954543010519,0.311043000566092909,-0.531783755121061130
0.504640366489242265,0.312976189690882312,-0.533013369574459883
0.506480778435473900,0.314912025909581172,-0.534236873478311836
0.508321190381705645,0.316850473928605825,-0.535454270229861806
0.510161602327937391,0.318791498515023697,-0.536665563378096566
0.512002014274169026,0.320735064497608968,-0.537870756622729873
0.513842426220400661,0.322681136767888788,-0.539069853813186950
0.515682838166632407,0.324629680281182276,-0.540262858947582414
0.517523250112864153,0.326580660057630756,-0.541449776171697872
0.519363662059095788,0.328534041183217607,-0.542630609777956074
0.521204074005327533,0.330489788810782947,-0.543805364204394404
0.523044485951559279,0.332447868161025173,-0.544974044033633809
0.524884897897790914,0.334408244523497433,-0.546136653991845411
0.526725309844022660,0.336370883257594067,-0.547293198947718107
0.528565721790254295,0.338335749793526430,-0.548443683911419844
0.530406133736486041,0.340302809633294179,-0.549588114033562336
0.532246545682717787,0.342272028351643554,-0.550726494604156902
0.534086957628949421,0.344243371597018288,-0.551858831051576404
0.535927369575181167,0.346216805092504132,-0.552985128941509418
0.537767781521412802,0.348192294636759214,-0.554105393975916849
0.539608193467644548,0.350169806104942527,-0.555219631991984541
0.541448605413876183,0.352149305449626637,-0.556327848961077120
0.543289017360107929,0.354130758701704740,-0.557430050987688719
0.545129429306339675,0.356114131971291381,-0.558526244308392372
0.546969841252571309,0.358099391448608972,-0.559616435290791525
0.548810253198803055,0.360086503404869196,-0.560700630432467095
0.550650665145034690,0.362075434193143364,-0.561778836359925315
0.552491077091266436,0.364066150249227616,-0.562851059827545352
0.554331489037498182,0.366058618092493071,-0.563917307716526151
0.556171900983729817,0.368052804326732208,-0.564977587033830719
0.558012312929961563,0.370048675640994473,-0.566031904911134531
0.559852724876193197,0.372046198810412287,-0.567080268603768589
0.561693136822424943,0.374045340697020112,-0.568122685489667045
0.563533548768656578,0.376046068250562138,-0.569159163068309271
0.565373960714888324,0.378048348509293364,-0.570189708959668140
0.567214372661120070,0.380052148600768969,-0.571214330903153322
0.569054784607351705,0.382057435742628460,-0.572233036756557678
0.570895196553583451,0.384064177243366722,-0.573245834495002216
