# omega (a.u.), Re alpha(w), Im alpha(w)
0.000000000000000000,0.000000000000000000,0.000000000000000000
0.001841148405593937,0.000006008392159185,-0.002912765844662170
0.003682296811187875,0.000024033403805247,-0.005825481334222212
0.005523445216781813,0.000054074540448665,-0.008738096116189543
0.007364593622375750,0.000096130977976848,-0.011650559843296399
0.009205742027969688,0.000150201562697830,-0.014562822176108544
0.011046890433563626,0.000216284811412075,-0.017474832785635198
0.012888038839157562,0.000294378911496326,-0.020386541355937805
0.014729187244751500,0.000384481721016272,-0.023297897586737525
0.016570335650345436,0.000486590768849131,-0.026208851196020969
0.018411484055939377,0.000600703254831274,-0.029119351922644154
0.020252632461533311,0.000726816049923561,-0.032029349528934117
0.022093780867127252,0.000864925696396758,-0.034938793803288168
0.023934929272721187,0.001015028408035843,-0.037847634562770467
0.025776077678315124,0.001177120070364393,-0.040755821655705467
0.027617226083909062,0.001351196240887869,-0.043663304964268124
0.029458374489503000,0.001537252149355314,-0.046570034407070658
0.031299522895096937,0.001735282698042089,-0.049475959941745327
0.033140671300690872,0.001945282462051252,-0.052381031567523287
0.034981819706284813,0.002167245689633369,-0.055285199327809086
0.036822968111878754,0.002401166302526636,-0.058188413312750327
0.038664116517472688,0.002647037896315904,-0.061090623661802790
0.040505264923066622,0.002904853740811049,-0.063991780566290096
0.042346413328660557,0.003174606780443799,-0.066891834271958162
0.044187561734254505,0.003456289634682718,-0.069790735081523933
0.046028710139848439,0.003749894598472300,-0.072688433357217933
0.047869858545442373,0.004055413642681030,-0.075584879523321172
0.049711006951036314,0.004372838414582521,-0.078480024068694948
0.051552155356630248,0.004702160238339942,-0.081373817549304353
0.053393303762224190,0.005043370115521879,-0.084266210590734594
0.055234452167818124,0.005396458725630936,-0.087157153890700237
0.057075600573412065,0.005761416426651478,-0.090046598221546897
0.058916748979005999,0.006138233255617205,-0.092934494432744832
0.060757897384599933,0.006526898929196690,-0.095820793453375422
0.062599045790193875,0.006927402844299681,-0.098705446294608271
0.064440194195787809,0.007339734078695239,-0.101588404052170567
0.066281342601381743,0.007763881391658672,-0.104469617908807683
0.068122491006975691,0.008199833224627450,-0.107349039136734242
0.069963639412569625,0.008647577701880278,-0.110226619100076459
0.071804787818163560,0.009107102631233382,-0.113102309257304717
0.073645936223757508,0.009578395504754795,-0.115976061163656566
0.075487084629351428,0.010061443499496772,-0.118847826473549550
0.077328233034945376,0.010556233478245724,-0.121717556942984195
0.079169381440539324,0.011062751990290809,-0.124585204431936034
0.081010529846133245,0.011580985272211396,-0.127450720906737147
0.082851678251727193,0.012110919248679424,-0.130314058442447284
0.084692826657321113,0.012652539533283500,-0.133175169225212775
0.086533975062915061,0.013205831429362888,-0.136034005554615284
0.088375123468509009,0.013770779930872255,-0.138890519846007865
0.090216271874102930,0.014347369723248946,-0.141744664632839801
0.092057420279696878,0.014935585184308656,-0.144596392568969334
0.093898568685290812,0.015535410385153842,-0.147445656430963967
0.095739717090884746,0.016146829091096784,-0.150292409120388076
0.097580865496478694,0.016769824762608593,-0.153136603666078647
0.099422013902072628,0.017404380556274184,-0.155978193226406575
0.101263162307666563,0.018050479325771987,-0.158817131091526398
0.103104310713260497,0.018708103622865770,-0.161653370685611836
0.104945459118854445,0.019377235698417639,-0.164486865569077684
0.106786607524448379,0.020057857503413882,-0.167317569440788017
0.108627755930042313,0.020749950690009143,-0.170145436140251266
0.110468904335636248,0.021453496612585117,-0.172970419649799451
0.112310052741230182,0.022168476328828481,-0.175792474096754636
0.114151201146824130,0.022894870600823333,-0.178611553755579688
0.115992349552418050,0.023632659896157305,-0.181427613050014869
0.117833497958011998,0.024381824389048685,-0.184240606555199415
0.119674646363605947,0.025142343961487928,-0.187050488999777581
0.121515794769199867,0.025914198204387971,-0.189857215267989904
0.123356943174793815,0.026697366418762105,-0.192660740401748048
0.125198091580387749,0.027491827616908777,-0.195461019602695268
0.127039239985981683,0.028297560523611619,-0.198258008234249494
0.128880388391575618,0.029114543577362352,-0.201051661823631794
0.130721536797169552,0.029942754931588926,-0.203841936063876988
0.132562685202763486,0.030782172455907354,-0.206628786815829718
0.134403833608357448,0.031632773737379737,-0.209412170110122225
0.136244982013951382,0.032494536081797962,-0.212192042149136229
0.138086130419545317,0.033367436514971205,-0.214968359308947976
0.139927278825139251,0.034251451784033535,-0.217741078141255956
0.141768427230733185,0.035146558358767281,-0.220510155375291311
0.143609575636327119,0.036052732432936378,-0.223275547919711020
0.145450724041921081,0.036969949925636271,-0.226037212864473452
0.147291872447515015,0.037898186482657380,-0.228795107482696269
0.149133020853108950,0.038837417477863630,-0.231549189232496816
0.150974169258702856,0.039787618014582873,-0.234299415758813495
0.152815317664296818,0.040748762927009942,-0.237045744895210658
0.154656466069890752,0.041720826781627092,-0.239788134665663344
0.156497614475484687,0.042703783878636090,-0.242526543286325474
0.158338762881078648,0.043697608253399932,-0.245260929167278124
0.160179911286672555,0.044702273677902991,-0.247991250914259442
0.162021059692266489,0.045717753662220709,-0.250717467330376920
0.163862208097860451,0.046744021456003503,-0.253439537417798566
0.165703356503454385,0.047781050049971990,-0.256157420379427403
0.167544504909048320,0.048828812177426635,-0.258871075620554836
0.169385653314642226,0.049887280315767814,-0.261580462750496678
0.171226801720236188,0.050956426688029084,-0.264285541584207695
0.173067950125830122,0.052036223264421248,-0.266986272143878323
0.174909098531424056,0.053126641763891494,-0.269682614660511355
0.176750246937018018,0.054227653655690454,-0.272374529575478419
0.178591395342611925,0.055339230160953039,-0.275061977542057134
0.180432543748205859,0.056461342254289219,-0.277744919426948789
0.182273692153799821,0.057593960665388647,-0.280423316311774973
0.184114840559393755,0.058737055880635027,-0.283097129494554622
0.185955988964987690,0.059890598144728739,-0.285766320491161852
0.187797137370581624,0.061054557462325652,-0.288430851036761859
0.189638285776175558,0.062228903599682854,-0.291090683087227797
0.191479434181769492,0.063413606086314869,-0.293745778820536596
0.193320582587363454,0.064608634216663643,-0.296396100638144699
0.195161730992957388,0.065813957051775188,-0.299041611166342980
0.197002879398551295,0.067029543420985632,-0.301682273257590672
0.198844027804145257,0.068255361923623206,-0.304318049991830264
0.200685176209739191,0.069491380930711721,-0.306948904677779300
0.202526324615333125,0.070737568586691654,-0.309574800854202636
0.204367473020927087,0.071993892811142823,-0.312195702291164723
0.206208621426520994,0.073260321300523470,-0.314811572991258559
0.208049769832114928,0.074536821529914934,-0.317422377190816396
0.209890918237708890,0.075823360754773528,-0.320028079361097006
0.211732066643302824,0.077119906012695069,-0.322628644209453974
0.213573215048896758,0.078426424125188035,-0.325224036680481055
0.215414363454490665,0.079742881699449181,-0.327814221957138108
0.217255511860084627,0.081069245130155745,-0.330399165461854272
0.219096660265678561,0.082405480601261127,-0.332978832857610818
0.220937808671272495,0.083751554087797678,-0.335553190049002914
0.222778957076866457,0.085107431357689764,-0.338122203183279513
0.224620105482460364,0.086473077973574869,-0.340685838651362094
0.226461253888054298,0.087848459294631198,-0.343244063088842866
0.228302402293648260,0.089233540478409548,-0.345796843376960206
0.230143550699242194,0.090628286482679232,-0.348344146643554009
0.231984699104836101,0.092032662067273951,-0.350885940263999441
0.233825847510430063,0.093446631795950155,-0.353422191862118096
0.235666995916023997,0.094870160038248288,-0.355952869311070175
0.237508144321617931,0.096303210971361172,-0.358477940734222789
0.239349292727211893,0.097745748582011627,-0.360997374505998836
0.241190441132805827,0.099197736668333952,-0.363511139252702398
0.243031589538399734,0.100659138841758186,-0.366019203853325481
0.244872737943993696,0.102129918528908986,-0.368521537440331393
0.246713886349587630,0.103610038973500268,-0.371018109400416740
0.248555034755181564,0.105099463238244498,-0.373508889375253395
0.250396183160775498,0.106598154206757625,-0.375993847262207914
0.252237331566369460,0.108106074585479967,-0.378472953215040486
0.254078479971963367,0.109623186905593112,-0.380946177644581774
0.255919628377557329,0.111149453524947289,-0.383413491219389724
0.257760776783151235,0.112684836629989613,-0.385874864866383505
0.259601925188745197,0.114229298237701324,-0.388330269771457737
0.261443073594339104,0.115782800197533800,-0.390779677380074297
0.263284221999933066,0.117345304193355413,-0.393223059397834585
0.265125370405526972,0.118916771745395999,-0.395660387791028856
0.266966518811120934,0.120497164212198943,-0.398091634787165749
0.268807667216714896,0.122086442792578131,-0.400516772875480320
0.270648815622308803,0.123684568527573535,-0.402935774807421043
0.272489964027902765,0.125291502302414121,-0.405348613597116603
0.274331112433496671,0.126907204848485500,-0.407755262521820261
0.276172260839090633,0.128531636745296218,-0.410155695122335906
0.278013409244684540,0.130164758422448262,-0.412549885203420008
0.279854557650278502,0.131806530161613644,-0.414937806834166700
0.281695706055872463,0.133456912098508629,-0.417319434348367158
0.283536854461466370,0.135115864224875148,-0.419694742344856098
0.285378002867060332,0.136783346390460414,-0.422063705687828084
0.287219151272654238,0.138459318305001328,-0.424426299507141780
0.289060299678248200,0.140143739540210116,-0.426782499198599286
0.290901448083842162,0.141836569531761325,-0.429132280424206036
0.292742596489436069,0.143537767581279785,-0.431475619112411446
0.294583744895030031,0.145247292858335042,-0.433812491458328120
0.296424893300623937,0.146965104402427021,-0.436142873923931695
0.298266041706217899,0.148691161124984567,-0.438466743238240753
0.300107190111811861,0.150425421811355903,-0.440784076397476021
0.301948338517405712,0.152167845122805623,-0.443094850665201101
0.303789486922999674,0.153918389598508482,-0.445399043572442033
0.305630635328593636,0.155677013657548685,-0.447696632917788162
0.307471783734187543,0.157443675600911021,-0.449987596767472742
0.309312932139781505,0.159218333613483004,-0.452271913455434993
0.311154080545375467,0.161000945766048870,-0.454549561583361295
0.312995228950969373,0.162791470017286305,-0.456820520020708720
0.314836377356563335,0.164589864215765186,-0.459084767904709201
0.316677525762157297,0.166396086101941953,-0.461342284640352374
0.318518674167751148,0.168210093310153824,-0.463593049900352716
0.320359822573345110,0.170031843370618024,-0.465837043625095926
0.322200970978939072,0.171861293711421975,-0.468074246022566032
0.324042119384532978,0.173698401660519530,-0.470304637568255746
0.325883267790126940,0.175543124447720744,-0.472528199005056271
0.327724416195720902,0.177395419206684390,-0.474744911343130127
0.329565564601314809,0.179255242976905899,-0.476954755859765045
0.331406713006908771,0.181122552705707124,-0.479157714099209764
0.333247861412502677,0.182997305250220704,-0.481353767872490956
0.335089009818096639,0.184879457379377055,-0.483542899257213887
0.336930158223690601,0.186768965775883033,-0.485725090597343756
0.338771306629284452,0.188665787038205079,-0.487900324502969163
0.340612455034878414,0.190569877682545658,-0.490068583850050310
0.342453603440472376,0.192481194144821288,-0.492229851780145944
0.344294751846066283,0.194399692782632028,-0.494384111700126028
0.346135900251660245,0.196325329877234556,-0.496531347281865598
0.347977048657254207,0.198258061635508048,-0.498671542461922912
0.349818197062848113,0.200197844191921159,-0.500804681441198718
0.351659345468442075,0.202144633610489871,-0.502930748684579987
0.353500493874036037,0.204098385886739619,-0.505049728920567098
0.355341642279629888,0.206059056949656261,-0.507161607140882875
0.357182790685223850,0.208026602663641480,-0.509266368600067909
0.359023939090817812,0.210000978830457652,-0.511363998815056009
0.360865087496411718,0.211982141191173284,-0.513454483564736663
0.362706235902005680,0.213970045428102329,-0.515537808889500071
0.364547384307599642,0.215964647166739743,-0.517613961090765629
0.366388532713193549,0.217965901977695914,-0.519682926730496320
0.368229681118787511,0.219973765378621566,-0.521744692630696449
0.370070829524381473,0.221988192836133053,-0.523799245872893171
0.371911977929975379,0.224009139767729681,-0.525846573797604466
0.373753126335569286,0.226036561543708464,-0.527886664003791362
0.375594274741163248,0.228070413489073698,-0.529919504348293713
0.377435423146757154,0.230110650885439638,-0.531945082945252223
0.379276571552351116,0.232157228972933477,-0.533963388165516473
0.381117719957945078,0.234210102952085886,-0.535974408636037403
0.382958868363538985,0.236269227985722086,-0.537978133239244705
0.384800016769132947,0.238334559200845952,-0.539974551112411771
0.386641165174726908,0.240406051690515432,-0.541963651647004219
0.388482313580320815,0.242483660515719013,-0.543945424488015861
0.390323461985914777,0.244567340707238179,-0.545919859533292251
0.392164610391508739,0.246657047267514001,-0.547886946932836238
0.394005758797102590,0.248752735172496187,-0.549846677088103974
0.395846907202696552,0.250854359373496316,-0.551799040651286377
0.397688055608290514,0.252961874799030040,-0.553744028524576826
0.399529204013884420,0.255075236356651192,-0.555681631859425429
0.401370352419478382,0.257194398934785462,-0.557611842055782292
0.403211500825072344,0.259319317404551664,-0.559534650761324803
0.405052649230666251,0.261449946621581275,-0.561450049870676815
0.406893797636260213,0.263586241427826273,-0.563358031524610725
0.408734946041854175,0.265728156653363912,-0.565258588109240012
0.410576094447448026,0.267875647118194171,-0.567151712255198670
0.412417242853041988,0.270028667634030328,-0.569037396836809761
0.414258391258635950,0.272187173006078142,-0.570915634971240094
0.416099539664229856,0.274351118034815322,-0.572786420017645570
0.417940688069823818,0.276520457517758111,-0.574649745576301996
0.419781836475417780,0.278695146251221160,-0.576505605487729444
0.421622984881011686,0.280875139032073562,-0.578353993831799529
0.423464133286605648,0.283060390659482741,-0.580194904926835675
0.425305281692199555,0.285250855936651504,-0.582028333328701852
0.427146430097793517,0.287446489672552707,-0.583854273829878645
0.428987578503387423,0.289647246683646831,-0.585672721458531664
0.430828726908981330,0.291853081795601044,-0.587483671477567193
0.432669875314575292,0.294063949844992401,-0.589287119383678726
0.434511023720169254,0.296279805681009589,-0.591083060906382851
0.436352172125763160,0.298500604167139638,-0.592871492007046030
0.438193320531357122,0.300726300182854234,-0.594652408877901051
0.440034468936951084,0.302956848625279440,-0.596425807941053598
0.441875617342544991,0.305192204410864809,-0.598191685847479393
0.443716765748138953,0.307432322477038000,-0.599950039476013552
0.445557914153732915,0.309677157783853629,-0.601700865932328188
0.447399062559326766,0.311926665315632956,-0.603444162547903451
0.449240210964920728,0.314180800082595024,-0.605179926878989138
0.451081359370514690,0.316439517122478253,-0.606908156705554758
0.452922507776108596,0.318702771502154591,-0.608628850030237367
0.454763656181702558,0.320970518319233011,-0.610342005077274763
0.456604804587296520,0.323242712703655954,-0.612047620291433447
0.458445952992890426,0.325519309819283287,-0.613745694336928271
0.460287101398484388,0.327800264865471869,-0.615436226096335304
0.462128249804078350,0.330085533078642912,-0.617119214669493044
0.463969398209672201,0.332375069733838291,-0.618794659372402411
0.465810546615266163,0.334668830146273799,-0.620462559736112529
0.467651695020860125,0.336966769672874533,-0.622122915505604501
0.469492843426454032,0.339268843713809165,-0.623775726638664541
0.471333991832047994,0.341575007714008005,-0.625420993304754202
0.473175140237641956,0.343885217164674961,-0.627058715883867968
0.475016288643235862,0.346199427604790555,-0.628688894965390155
0.476857437048829824,0.348517594622602067,-0.630311531346941845
0.478698585454423786,0.350839673857106904,-0.631926626033222694
0.480539733860017693,0.353165620999523200,-0.633534180234845201
0.482380882265611655,0.355495391794754867,-0.635134195367165977
0.484222030671205561,0.357828942042841047,-0.636726673049107905
0.486063179076799468,0.360166227600402455,-0.638311615101977536
0.487904327482393430,0.362507204382071235,-0.639889023548278590
0.489745475887987392,0.364851828361912933,-0.641458900610517690
0.491586624293581298,0.367200055574841810,-0.643021248710005988
0.493427772699175260,0.369551842118020779,-0.644576070465656792
0.495268921104769222,0.371907144152254399,-0.646123368692774536
0.497110069510363128,0.374265917903371215,-0.647663146401843415
0.498951217915957090,0.376628119663593108,-0.649195406797308694
0.500792366321550997,0.378993705792900537,-0.650720153276353797
0.502633514727144903,0.381362632720378736,-0.652237389427673619
0.504474663132738921,0.383734856945562364,-0.653747119030242629
0.506315811538332827,0.386110335039763275,-0.655249346052080073
0.508156959943926734,0.388489023647390186,-0.656744074649010301
0.509998108349520751,0.390870879487260015,-0.658231309163420431
0.511839256755114658,0.393255859353892567,-0.659711054123011675
0.513680405160708564,0.395643920118803782,-0.661183314239550346
0.515521553566302471,0.398035018731777102,-0.662648094407613852
0.517362701971896488,0.400429112222136785,-0.664105399703333488
0.519203850377490395,0.402826157699997411,-0.665555235383133659
0.521044998783084301,0.405226112357515600,-0.666997606882469563
0.522886147188678208,0.407628933470121468,-0.668432519814560422
0.524727295594272225,0.410034578397742988,-0.669859979969121277
0.526568443999866131,0.412443004586018735,-0.671279993311091006
0.528409592405460038,0.414854169567502984,-0.672692565979358892
0.530250740811053944,0.417268030962855252,-0.674097704285487764
0.532091889216647962,0.419684546482022358,-0.675495414712437459
0.533933037622241868,0.422103673925407097,-0.676885703913281622
0.535774186027835775,0.424525371185029254,-0.678268578709927850
0.537615334433429792,0.426949596245674301,-0.679644046091831822
0.539456482839023699,0.429376307186027650,-0.681012113214712334
0.541297631244617605,0.431805462179805588,-0.682372787399263769
0.543138779650211623,0.434237019496868770,-0.683726076129866800
0.544979928055805529,0.436670937504326395,-0.685071987053299081
0.546821076461399436,0.439107174667632383,-0.686410527977442841
0.548662224866993342,0.441545689551665399,-0.687741706869993030
0.550503373272587249,0.443986440821804162,-0.689065531857164459
0.552344521678181266,0.446429387244985931,-0.690382011222396619
0.554185670083775173,0.448874487690756385,-0.691691153405060044
0.556026818489369079,0.451321701132311459,-0.692992966999159243
0.557867966894963097,0.453770986647522412,-0.694287460752038732
0.559709115300557003,0.456222303419954678,-0.695574643563084627
0.561550263706150909,0.458675610739874839,-0.696854524482430238
0.563391412111744927,0.461130868005241890,-0.698127112709658548
0.565232560517338833,0.463588034722696385,-0.699392417592505478
0.567073708922932740,0.466047070508530226,-0.700650448625562250
0.568914857328526646,0.468507935089651051,-0.701901215448982096
0.570756005734120664,0.470970588304531312,-0.703144727847181294
