# omega (a.u.), Re alpha(w), Im alpha(w)
0.000367493221756550,0.000000070658612502,-0.000171613765096053
0.002207905167988250,0.000002550503261413,-0.001031054098134716
0.004048317114219949,0.000008574537967166,-0.001890476620892830
0.005888729060451649,0.000018142597602991,-0.002749866488468230
0.007729141006683348,0.000031254419901020,-0.003609208857650923
0.009569552952915049,0.000047909645468688,-0.004468488887692129
0.011409964899146748,0.000068107817809005,-0.005327691741073079
0.013250376845378447,0.000091848383348585,-0.006186802584273463
0.015090788791610148,0.000119130691470139,-0.007045806588539463
0.016931200737841847,0.000149953994550207,-0.007904688930651275
0.018771612684073548,0.000184317448004632,-0.008763434793690100
0.020612024630305245,0.000222220110336914,-0.009622029367804380
0.022452436576536946,0.000263660943195966,-0.010480457850975407
0.024292848522768647,0.000308638811435328,-0.011338705449782025
0.026133260469000344,0.000357152483181142,-0.012196757380164472
0.027973672415232041,0.000409200629905503,-0.013054598868187243
0.029814084361463745,0.000464781826504037,-0.013912215150800881
0.031654496307695443,0.000523894551380678,-0.014769591476602640
0.033494908253927147,0.000586537186536937,-0.015626713106595910
0.035335320200158844,0.000652708017668010,-0.016483565314948385
0.037175732146390542,0.000722405234263411,-0.017340133389748817
0.039016144092622246,0.000795626929714356,-0.018196402633762359
0.040856556038853936,0.000872371101425787,-0.019052358365184294
0.042696967985085640,0.000952635650934544,-0.019907985918392313
0.044537379931317345,0.001036418384033249,-0.020763270644696866
0.046377791877549042,0.001123717010899162,-0.021618197913090043
0.048218203823780746,0.001214529146229474,-0.022472753110992338
0.050058615770012437,0.001308852309381915,-0.023326921644997646
0.051899027716244141,0.001406683924520301,-0.024180688941616329
0.053739439662475845,0.001508021320766473,-0.025034040448015965
0.055579851608707535,0.001612861732357637,-0.025886961632760205
0.057420263554939240,0.001721202298807225,-0.026739437986545319
0.059260675501170937,0.001833040065076073,-0.027591455022934374
0.061101087447402641,0.001948371981743611,-0.028442998279089152
0.062941499393634345,0.002067194905186956,-0.029294053316499563
0.064781911339866036,0.002189505597766831,-0.030144605721710543
0.066622323286097740,0.002315300728017086,-0.030994641107046382
0.068462735232329444,0.002444576870838809,-0.031844145111332385
0.070303147178561134,0.002577330507702514,-0.032693103400613772
0.072143559124792839,0.002713558026853239,-0.033541501668871800
0.073983971071024529,0.002853255723522309,-0.034389325638736971
0.075824383017256219,0.002996419800144673,-0.035236561062199322
0.077664794963487938,0.003143046366579328,-0.036083193721315743
0.079505206909719628,0.003293131440339328,-0.036929209428914013
0.081345618855951318,0.003446670946820864,-0.037774594029293909
0.083186030802183022,0.003603660719544158,-0.038619333398924968
0.085026442748414727,0.003764096500395048,-0.039463413447141008
0.086866854694646431,0.003927973939873579,-0.040306820116831066
0.088707266640878121,0.004095288597346642,-0.041149539385127352
0.090547678587109812,0.004266035941307271,-0.041991557264089284
0.092388090533341530,0.004440211349638653,-0.042832859801384057
0.094228502479573220,0.004617810109880957,-0.043673433080963803
0.096068914425804924,0.004798827419507199,-0.044513263223738782
0.097909326372036629,0.004983258386200946,-0.045352336388246942
0.099749738318268319,0.005171098028139690,-0.046190638771319653
0.101590150264500023,0.005362341274284714,-0.047028156608743647
0.103430562210731727,0.005556982964673690,-0.047864876175918655
0.105270974156963418,0.005755017850719647,-0.048700783788511580
0.107111386103195122,0.005956440595514474,-0.049535865803106205
0.108951798049426812,0.006161245774137560,-0.050370108617848811
0.110792209995658517,0.006369427873968288,-0.051203498673089799
0.112632621941890221,0.006580981295004003,-0.052036022452020901
0.114473033888121911,0.006795900350182829,-0.052867666481308091
0.116313445834353629,0.007014179265711809,-0.053698417331720330
0.118153857780585320,0.007235812181397543,-0.054528261618753522
0.119994269726817010,0.007460793150983941,-0.055357186003250382
0.121834681673048728,0.007689116142493138,-0.056185177192015615
0.123675093619280418,0.007920775038571720,-0.057012221938426387
0.125515505565512137,0.008155763636841534,-0.057838307043038384
0.127355917511743827,0.008394075650253519,-0.058663419354187049
0.129196329457975517,0.008635704707448403,-0.059487545768584150
0.131036741404207235,0.008880644353120361,-0.060310673231909438
0.132877153350438926,0.009128888048385462,-0.061132788739397571
0.134717565296670616,0.009380429171153642,-0.061953879336420131
0.136557977242902306,0.009635261016507406,-0.062773932119062723
0.138398389189134025,0.009893376797081277,-0.063592934234696932
0.140238801135365715,0.010154769643449576,-0.064410872882547474
0.142079213081597405,0.010419432604514235,-0.065227735314254118
0.143919625027829096,0.010687358647900574,-0.066043508834428374
0.145760036974060814,0.010958540660354685,-0.066858180801205480
0.147600448920292504,0.011232971448145950,-0.067671738626790379
0.149440860866524222,0.011510643737474161,-0.068484169777999357
0.151281272812755913,0.011791550174878511,-0.069295461776795519
0.153121684758987603,0.012075683327653493,-0.070105602200819600
0.154962096705219321,0.012363035684266693,-0.070914578683915055
0.156802508651450984,0.012653599654781980,-0.071722378916647525
0.158642920597682702,0.012947367571283317,-0.072528990646819586
0.160483332543914420,0.013244331688308754,-0.073334401679979039
0.162323744490146082,0.013544484183280209,-0.074138599879922371
0.164164156436377801,0.013847817156944320,-0.074941573169192366
0.166004568382609519,0.014154322633811495,-0.075743309529570230
0.167844980328841209,0.014463992562602196,-0.076543797002561642
0.169685392275072899,0.014776818816695087,-0.077343023689878027
0.171525804221304617,0.015092793194579502,-0.078140977753911059
0.173366216167536308,0.015411907420310790,-0.078937647418202181
0.175206628113767998,0.015734153143969646,-0.079733020967906104
0.177047040059999716,0.016059521942125048,-0.080527086750248444
0.178887452006231407,0.016388005318300286,-0.081319833174977485
0.180727863952463097,0.016719594703441913,-0.082111248714810403
0.182568275898694815,0.017054281456393965,-0.082901321905873168
0.184408687844926505,0.017392056864371265,-0.083690041348134903
0.186249099791158196,0.017732912143441967,-0.084477395705836081
0.188089511737389914,0.018076838439007814,-0.085263373707910761
0.189929923683621604,0.018423826826290277,-0.086047964148402892
0.191770335629853322,0.018773868310819571,-0.086831155886876829
0.193610747576084985,0.019126953828926357,-0.087612937848821321
0.195451159522316703,0.019483074248236216,-0.088393299026047853
0.197291571468548421,0.019842220368167542,-0.089172228477082727
0.199131983414780084,0.020204382920432022,-0.089949715327553206
0.200972395361011802,0.020569552569538626,-0.090725748770567383
0.202812807307243520,0.020937719913299131,-0.091500318067087888
0.204653219253475183,0.021308875483337476,-0.092273412546299546
0.206493631199706901,0.021683009745602871,-0.093045021605971306
0.208334043145938619,0.022060113100881611,-0.093815134712810763
0.210174455092170281,0.022440175885316865,-0.094583741402813934
0.212014867038402000,0.022823188370926742,-0.095350831281607998
0.213855278984633718,0.023209140766127456,-0.096116394024787818
0.215695690930865380,0.023598023216257171,-0.096880419378246652
0.217536102877097098,0.023989825804104033,-0.097642897158500247
0.219376514823328816,0.024384538550435809,-0.098403817253004816
0.221216926769560479,0.024782151414530669,-0.099163169620469033
0.223057338715792197,0.025182654294712645,-0.099920944291159053
0.224897750662023888,0.025586037028887225,-0.100677131367198108
0.226738162608255606,0.025992289395081285,-0.101431721022859231
0.228578574554487296,0.026401401111982040,-0.102184703504852037
0.230418986500718986,0.026813361839482491,-0.102936069132602739
0.232259398446950704,0.027228161179223661,-0.103685808298528734
0.234099810393182395,0.027645788675143352,-0.104433911468305843
0.235940222339414085,0.028066233814025527,-0.105180369181130287
0.237780634285645803,0.028489486026049705,-0.105925172049973412
0.239621046231877494,0.028915534685344517,-0.106668310761830726
0.241461458178109184,0.029344369110542758,-0.107409776077964758
0.243301870124340902,0.029775978565337084,-0.108149558834141041
0.245142282070572592,0.030210352259037909,-0.108887649940858089
0.246982694016804283,0.030647479347134583,-0.109624040383571389
0.248823105963036001,0.031087348931854306,-0.110358721222910572
0.250663517909267719,0.031529950062727775,-0.111091683594890744
0.252503929855499409,0.031975271737152380,-0.111822918711117283
0.254344341801731100,0.032423302900957046,-0.112552417858984330
0.256184753747962790,0.032874032448972461,-0.113280172401867524
0.258025165694194480,0.033327449225597570,-0.114006173779309730
0.259865577640426171,0.033783542025369914,-0.114730413507201062
0.261705989586657917,0.034242299593538555,-0.115452883177952423
0.263546401532889552,0.034703710626634923,-0.116173574460663037
0.265386813479121297,0.035167763773047762,-0.116892479101281671
0.267227225425352988,0.035634447633598174,-0.117609588922761299
0.269067637371584678,0.036103750762114716,-0.118324895825208443
0.270908049317816368,0.036575661666011443,-0.119038391786025280
0.272748461264048114,0.037050168806865812,-0.119750068860046480
0.274588873210279749,0.037527260600998001,-0.120459919179669458
0.276429285156511495,0.038006925420050172,-0.121167934954978448
0.278269697102743185,0.038489151591568023,-0.121874108473862680
0.280110109048974876,0.038973927399582588,-0.122578432102128446
0.281950520995206566,0.039461241085191306,-0.123280898283605056
0.283790932941438312,0.039951080847143085,-0.123981499540244233
0.285631344887670002,0.040443434842420550,-0.124680228472214660
0.287471756833901693,0.040938291186825661,-0.125377077757989314
0.289312168780133383,0.041435637955563188,-0.126072040154427301
0.291152580726365073,0.041935463183827737,-0.126765108496849771
0.292992992672596764,0.042437754867388953,-0.127456275699109944
0.294833404618828510,0.042942500963178448,-0.128145534753656559
0.296673816565060200,0.043449689389876131,-0.128832878731592437
0.298514228511291890,0.043959308028496902,-0.129518300782726109
0.300354640457523636,0.044471344722979478,-0.130201794135618831
0.302195052403755271,0.044985787280773466,-0.130883352097624056
0.304035464349986961,0.045502623473426623,-0.131562968054922791
0.305875876296218652,0.046021841037173231,-0.132240635472552187
0.307716288242450398,0.046543427673522965,-0.132916347894428660
0.309556700188682088,0.047067371049848865,-0.133590098943365015
0.311397112134913834,0.047593658799974133,-0.134261882321082465
0.313237524081145469,0.048122278524762842,-0.134931691808216403
0.315077936027377159,0.048653217792706420,-0.135599521264316625
0.316918347973608849,0.049186464140511255,-0.136265364627842389
0.318758759919840595,0.049722005073688375,-0.136929215916151037
0.320599171866072286,0.050259828067140161,-0.137591069225482004
0.322439583812303976,0.050799920565746746,-0.138250918730934730
0.324279995758535666,0.051342269984955620,-0.138908758686441203
0.326120407704767357,0.051886863711365964,-0.139564583424732658
0.327960819650999047,0.052433689103316326,-0.140218387357302438
0.329801231597230793,0.052982733491470771,-0.140870164974360723
0.331641643543462483,0.053533984179403700,-0.141519910844786490
0.333482055489694174,0.054087428444185695,-0.142167619616072910
0.335322467435925919,0.054643053536967294,-0.142813286014267404
0.337162879382157554,0.055200846683563731,-0.143456904843906857
0.339003291328389245,0.055760795085037056,-0.144098470987947758
0.340843703274620990,0.056322885918279865,-0.144737979407690093
0.342684115220852681,0.056887106336596764,-0.145375425142697606
0.344524527167084371,0.057453443470285491,-0.146010803310711812
0.346364939113316117,0.058021884427216883,-0.146644109107561538
0.348205351059547752,0.058592416293415252,-0.147275337807066781
0.350045763005779442,0.059165026133636521,-0.147904484760938676
0.351886174952011188,0.059739700991945484,-0.148531545398673331
0.353726586898242878,0.060316427892293523,-0.149156515227441222
0.355566998844474569,0.060895193839093531,-0.149779389831972254
0.357407410790706315,0.061475985817795453,-0.150400164874434777
0.359247822736938005,0.062058790795458979,-0.151018836094311049
0.361088234683169640,0.062643595721326648,-0.151635399308267194
0.362928646629401330,0.063230387527395973,-0.152249850410018511
0.364769058575633076,0.063819153128987560,-0.152862185370190501
0.366609470521864766,0.064409879425316757,-0.153472400236174561
0.368449882468096512,0.065002553300058621,-0.154080491131980080
0.370290294414328203,0.065597161621916839,-0.154686454258080835
0.372130706360559838,0.066193691245187231,-0.155290285891258040
0.373971118306791528,0.066792129010322304,-0.155891982384437744
0.375811530253023274,0.067392461744491872,-0.156491540166524862
0.377651942199254964,0.067994676262147238,-0.157088955742232361
0.379492354145486654,0.068598759365576481,-0.157684225691905683
0.381332766091718400,0.069204697845465665,-0.158277346671343799
0.383173178037950091,0.069812478481453596,-0.158868315411615196
0.385013589984181726,0.070422088042686154,-0.159457128718870439
0.386854001930413471,0.071033513288370792,-0.160043783474149298
0.388694413876645162,0.071646740968326572,-0.160628276633185574
0.390534825822876852,0.072261757823535278,-0.161210605226206088
0.392375237769108598,0.072878550586687643,-0.161790766357726712
0.394215649715340288,0.073497105982731972,-0.162368757206344139
0.396056061661571923,0.074117410729416355,-0.162944575024523697
0.397896473607803669,0.074739451537833110,-0.163518217138383160
0.399736885554035359,0.075363215112958071,-0.164089680947472838
0.401577297500267050,0.075988688154191242,-0.164658963924551982
0.403417709446498796,0.076615857355892880,-0.165226063615360963
0.405258121392730486,0.077244709407917833,-0.165790977638390680
0.407098533338962121,0.077875230996150263,-0.166353703684646886
0.408938945285193867,0.078507408803033960,-0.166914239517412633
0.410779357231425557,0.079141229508101485,-0.167472582972005291
0.412619769177657247,0.079776679788500907,-0.168028731955531502
0.414460181123888993,0.080413746319520862,-0.168582684446638487
0.416300593070120684,0.081052415775114656,-0.169134438495260581
0.418141005016352374,0.081692674828418896,-0.169683992222363966
0.419981416962584009,0.082334510152272930,-0.170231343819687742
0.421821828908815755,0.082977908419735624,-0.170776491549480769
0.423662240855047445,0.083622856304598536,-0.171319433744236277
0.425502652801279191,0.084269340481898602,-0.171860168806423019
0.427343064747510881,0.084917347628426579,-0.172398695208212743
0.429183476693742572,0.085566864423235439,-0.172935011491205548
0.431023888639974206,0.086217877548144001,-0.173469116266150997
0.432864300586205952,0.086870373688241187,-0.174001008212667646
0.434704712532437643,0.087524339532383727,-0.174530686078958053
0.436545124478669333,0.088179761773696796,-0.175058148681521891
0.438385536424901079,0.088836627110066096,-0.175583394904865936
0.440225948371132769,0.089494922244633790,-0.176106423701211434
0.442066360317364404,0.090154633886286487,-0.176627234090197954
0.443906772263596150,0.090815748750144351,-0.177145825158585651
0.445747184209827840,0.091478253558046216,-0.177662196059953759
0.447587596156059531,0.092142135039031334,-0.178176346014396858
0.449428008102291277,0.092807379929821673,-0.178688274308219125
0.451268420048522967,0.093473974975297497,-0.179197980293625048
0.453108831994754657,0.094141906928973257,-0.179705463388408260
0.454949243940986348,0.094811162553469427,-0.180210723075637846
0.456789655887218038,0.095481728620983489,-0.180713758903341959
0.458630067833449728,0.096153591913755304,-0.181214570484189624
0.460470479779681474,0.096826739224531930,-0.181713157495169531
0.462310891725913164,0.097501157357030618,-0.182209519677267229
0.464151303672144855,0.098176833126394997,-0.182703656835139644
0.465991715618376545,0.098853753359653587,-0.183195568836787753
0.467832127564608236,0.099531904896172058,-0.183685255613226406
0.469672539510839926,0.100211274588104138,-0.184172717158153504
0.471512951457071672,0.100891849300838651,-0.184657953527615548
0.473353363403303362,0.101573615913445756,-0.185140964839672212
0.475193775349535052,0.102256561319117145,-0.185621751274058278
0.477034187295766798,0.102940672425607505,-0.186100313071844797
0.478874599241998433,0.103625936155668757,-0.186576650535096533
0.480715011188230124,0.104312339447485233,-0.187050764026529925
0.482555423134461814,0.104999869255102796,-0.187522653969167175
0.484395835080693560,0.105688512548857722,-0.187992320845989852
0.486236247026925250,0.106378256315800182,-0.188459765199590318
0.488076658973156996,0.107069087560117251,-0.188924987631821861
0.489917070919388631,0.107760993303550684,-0.189387988803446594
0.491757482865620321,0.108453960585812859,-0.189848769433783038
0.493597894811852012,0.109147976465000324,-0.190307330300350463
0.495438306758083757,0.109843028018002886,-0.190763672238513426
0.497278718704315448,0.110539102340910786,-0.191217796141123830
0.499119130650547138,0.111236186549417915,-0.191669702958162075
0.500959542596778884,0.111934267779223606,-0.192119393696376789
0.502799954543010519,0.112633333186429041,-0.192566869418923148
0.504640366489242265,0.113333369947933124,-0.193012131245000024
0.506480778435473900,0.114034365261822840,-0.193455180349486111
0.508321190381705645,0.114736306347762787,-0.193896017962574468
0.510161602327937391,0.115439180447379899,-0.194334645369406478
0.512002014274169026,0.116142974824645889,-0.194771063909704056
0.513842426220400661,0.116847676766256320,-0.195205274977401644
0.515682838166632407,0.117553273582007178,-0.195637280020276527
0.517523250112864153,0.118259752605167329,-0.196067080539578303
0.519363662059095788,0.118967101192847771,-0.196494678089657759
0.521204074005327533,0.119675306726369557,-0.196920074277594670
0.523044485951559279,0.120384356611626109,-0.197343270762824652
0.524884897897790914,0.121094238279444724,-0.197764269256765324
0.526725309844022660,0.121804939185942443,-0.198183071522441773
0.528565721790254295,0.122516446812880889,-0.198599679374111132
0.530406133736486041,0.123228748668016558,-0.199014094676886744
0.532246545682717787,0.123941832285449222,-0.199426319346361375
0.534086957628949421,0.124655685225965415,-0.199836355348229883
0.535927369575181167,0.125370295077380789,-0.200244204697911876
0.537767781521412802,0.126085649454876519,-0.200649869460172631
0.539608193467644548,0.126801736001336457,-0.201053351748744780
0.541448605413876183,0.127518542387676376,-0.201454653725948757
0.543289017360107929,0.128236056313173641,-0.201853777602313628
0.545129429306339675,0.128954265505792809,-0.202250725636196033
0.546969841252571309,0.129673157722506566,-0.202645500133400214
0.548810253198803055,0.130392720749614888,-0.203038103446798124
0.550650665145034690,0.131112942403060623,-0.203428537975946677
0.552491077091266436,0.131833810528742296,-0.203816806166707942
0.554331489037498182,0.132555313002822667,-0.204202910510867225
0.556171900983729817,0.133277437732033849,-0.204586853545750819
0.558012312929961563,0.134000172653981564,-0.204968637853845337
0.559852724876193197,0.134723505737443239,-0.205348266062414880
0.561693136822424943,0.135447424982664932,-0.205725740843120064
0.563533548768656578,0.136171918421653160,-0.206101064911634629
0.565373960714888324,0.136896974118466241,-0.206474241027265276
0.567214372661120070,0.137622580169499020,-0.206845271992567942
0.569054784607351705,0.138348724703767495,-0.207214160652967383
0.570895196553583451,0.139075395883187430,-0.207580909896374566
