# omega (a.u.), Re alpha(w), Im alpha(w)
0.000000000000000000,0.000000000000000000,0.000000000000000000
0.001841148405593937,0.000001773548537306,-0.000859786023665004
0.003682296811187875,0.000007094145494460,-0.001719557183583541
0.005523445216781813,0.000015961644908421,-0.002579298616780020
0.007364593622375750,0.000028375803519147,-0.003438995461820507
0.009205742027969688,0.000044336280781712,-0.004298632859583365
0.011046890433563626,0.000063842638887140,-0.005158195954029638
0.012888038839157562,0.000086894342787594,-0.006017669892973108
0.014729187244751500,0.000113490760230602,-0.006877039828849963
0.016570335650345436,0.000143631161793397,-0.007736290919487971
0.018411484055939377,0.000177314720927780,-0.008595408328875089
0.020252632461533311,0.000214540514008441,-0.009454377227927429
0.022093780867127252,0.000255307520387820,-0.010313182795256483
0.023934929272721187,0.000299614622456407,-0.011171810217935575
0.025776077678315124,0.000347460605708993,-0.012030244692265409
0.027617226083909062,0.000398844158816695,-0.012888471424538630
0.029458374489503000,0.000453763873703350,-0.013746475631803378
0.031299522895096937,0.000512218245630162,-0.014604242542625654
0.033140671300690872,0.000574205673283818,-0.015461757397850606
0.034981819706284813,0.000639724458871164,-0.016319005451362386
0.036822968111878754,0.000708772808219854,-0.017175971970842693
0.038664116517472688,0.000781348830883479,-0.018032642238527956
0.040505264923066622,0.000857450540254499,-0.018889001551964883
0.042346413328660557,0.000937075853680475,-0.019745035224764448
0.044187561734254505,0.001020222592586575,-0.020600728587354292
0.046028710139848439,0.001106888482605591,-0.021456066987729162
0.047869858545442373,0.001197071153710321,-0.022311035792199778
0.049711006951036314,0.001290768140354802,-0.023165620386139577
0.051552155356630248,0.001387976881618115,-0.024019806174729607
0.053393303762224190,0.001488694721356316,-0.024873578583701279
0.055234452167818124,0.001592918908358196,-0.025726923060077039
0.057075600573412065,0.001700646596507848,-0.026579825072908826
0.058916748979005999,0.001811874844950985,-0.027432270114014119
0.060757897384599933,0.001926600618268540,-0.028284243698709861
0.062599045790193875,0.002044820786655827,-0.029135731366543724
0.064440194195787809,0.002166532126104200,-0.029986718682022965
0.066281342601381743,0.002291731318593228,-0.030837191235340705
0.068122491006975691,0.002420414952282581,-0.031687134643099503
0.069963639412569625,0.002552579521714316,-0.032536534549032214
0.071804787818163560,0.002688221428017171,-0.033385376624720117
0.073645936223757508,0.002827336979117507,-0.034233646570308043
0.075487084629351428,0.002969922389956370,-0.035081330115216677
0.077328233034945376,0.003115973782709966,-0.035928413018851760
0.079169381440539324,0.003265487187016776,-0.036774881071310252
0.081010529846133245,0.003418458540210007,-0.037620720094083335
0.082851678251727193,0.003574883687555083,-0.038465915940756157
0.084692826657321113,0.003734758382491372,-0.039310454497704372
0.086533975062915061,0.003898078286879683,-0.040154321684787220
0.088375123468509009,0.004064838971257486,-0.040997503456037185
0.090216271874102930,0.004235035915094290,-0.041839985800346265
0.092057420279696878,0.004408664507055928,-0.042681754742148609
0.093898568685290812,0.004585720045273668,-0.043522796342099386
0.095739717090884746,0.004766197737615398,-0.044363096697750397
0.097580865496478694,0.004950092701967459,-0.045202641944221300
0.099422013902072628,0.005137399966514273,-0.046041418254867614
0.101263162307666563,0.005328114470029732,-0.046879411841944454
0.103104310713260497,0.005522231062168395,-0.047716608957266593
0.104945459118854445,0.005719744503765534,-0.048552995892864152
0.106786607524448379,0.005920649467139066,-0.049388558981634592
0.108627755930042313,0.006124940536398363,-0.050223284597990525
0.110468904335636248,0.006332612207757012,-0.051057159158503097
0.112310052741230182,0.006543658889850139,-0.051890169122541283
0.114151201146824130,0.006758074904057413,-0.052722300992906992
0.115992349552418050,0.006975854484829492,-0.053553541316465558
0.117833497958011998,0.007196991780020630,-0.054383876684772042
0.119674646363605947,0.007421480851226062,-0.055213293734692914
0.121515794769199867,0.007649315674120671,-0.056041779149023294
0.123356943174793815,0.007880490138807345,-0.056869319657099543
0.125198091580387749,0.008114998050166827,-0.057695902035407212
0.127039239985981683,0.008352833128210986,-0.058521513108184396
0.128880388391575618,0.008593989008445454,-0.059346139748020263
0.130721536797169552,0.008838459242230113,-0.060169768876448711
0.132562685202763486,0.009086237297150400,-0.060992387464537515
0.134403833608357448,0.009337316557387417,-0.061813982533472055
0.136244982013951382,0.009591690324097565,-0.062634541155134463
0.138086130419545317,0.009849351815792462,-0.063454050452677865
0.139927278825139251,0.010110294168724568,-0.064272497601095185
0.141768427230733185,0.010374510437277893,-0.065089869827783281
0.143609575636327119,0.010641993594362601,-0.065906154413101617
0.145450724041921081,0.010912736531811384,-0.066721338690925960
0.147291872447515015,0.011186732060783952,-0.067535410049196762
0.149133020853108950,0.011463972912173177,-0.068348355930462401
0.150974169258702856,0.011744451737014956,-0.069160163832416868
0.152815317664296818,0.012028161106903242,-0.069970821308432435
0.154656466069890752,0.012315093514409107,-0.070780315968086635
0.156497614475484687,0.012605241373503079,-0.071588635477683932
0.158338762881078648,0.012898597019981087,-0.072395767560772012
0.160179911286672555,0.013195152711894973,-0.073201699998652350
0.162021059692266489,0.013494900629987237,-0.074006420630885569
0.163862208097860451,0.013797832878128373,-0.074809917355790734
0.165703356503454385,0.014103941483757895,-0.075612178130939581
0.167544504909048320,0.014413218398331035,-0.076413190973644518
0.169385653314642226,0.014725655497766311,-0.077212943961441585
0.171226801720236188,0.015041244582898912,-0.078011425232567072
0.173067950125830122,0.015359977379936168,-0.078808622986428767
0.174909098531424056,0.015681845540917165,-0.079604525484071403
0.176750246937018018,0.016006840644177126,-0.080399121048636099
0.178591395342611925,0.016334954194811683,-0.081192398065814020
0.180432543748205859,0.016666177625148194,-0.081984344984294438
0.182273692153799821,0.017000502295218635,-0.082774950316206561
0.184114840559393755,0.017337919493236029,-0.083564202637555388
0.185955988964987690,0.017678420436074246,-0.084352090588652076
0.187797137370581624,0.018021996269750852,-0.085138602874537936
0.189638285776175558,0.018368638069913228,-0.085923728265402344
0.191479434181769492,0.018718336842326988,-0.086707455596995026
0.193320582587363454,0.019071083523370193,-0.087489773771032175
0.195161730992957388,0.019426868980526670,-0.088270671755596136
0.197002879398551295,0.019785684012884976,-0.089050138585529445
0.198844027804145257,0.020147519351640133,-0.089828163362822649
0.200685176209739191,0.020512365660596533,-0.090604735256995958
0.202526324615333125,0.020880213536675778,-0.091379843505474512
0.204367473020927087,0.021251053510426079,-0.092153477413958088
0.206208621426520994,0.021624876046534156,-0.092925626356784058
0.208049769832114928,0.022001671544341513,-0.093696279777284466
0.209890918237708890,0.022381430338361132,-0.094465427188136761
0.211732066643302824,0.022764142698797729,-0.095233058171708337
0.213573215048896758,0.023149798832072362,-0.095999162380395034
0.215414363454490665,0.023538388881345174,-0.096763729536953016
0.217255511860084627,0.023929902927045721,-0.097526749434824839
0.219096660265678561,0.024324330987401853,-0.098288211938458700
0.220937808671272495,0.024721663018972939,-0.099048106983622264
0.222778957076866457,0.025121888917183824,-0.099806424577709191
0.224620105482460364,0.025524998516863955,-0.100563154800040203
0.226461253888054298,0.025930981592785125,-0.101318287802157389
0.228302402293648260,0.026339827860203478,-0.102071813808112546
0.230143550699242194,0.026751526975404123,-0.102823723114748730
0.231984699104836101,0.027166068536245164,-0.103574006091976298
0.233825847510430063,0.027583442082707643,-0.104322653183041528
0.235666995916023997,0.028003637097443666,-0.105069654904790158
0.237508144321617931,0.028426643006328512,-0.105815001847923626
0.239349292727211893,0.028852449179015496,-0.106558684677249646
0.241190441132805827,0.029281044929489304,-0.107300694131925944
0.243031589538399734,0.029712419516624965,-0.108041021025698250
0.244872737943993696,0.030146562144746078,-0.108779656247131470
0.246713886349587630,0.030583461964184721,-0.109516590759834873
0.248555034755181564,0.031023108071846252,-0.110251815602680991
0.250396183160775498,0.031465489511769237,-0.110985321890017807
0.252237331566369460,0.031910595275695008,-0.111717100811875289
0.254078479971963367,0.032358414303631476,-0.112447143634165081
0.255919628377557329,0.032808935484423311,-0.113175441698874363
0.257760776783151235,0.033262147656320289,-0.113901986424253088
0.259601925188745197,0.033718039607549904,-0.114626769304995144
0.261443073594339104,0.034176600076887768,-0.115349781912413130
0.263284221999933066,0.034637817754233906,-0.116071015894607291
0.265125370405526972,0.035101681281185043,-0.116790462976627429
0.266966518811120934,0.035568179251611459,-0.117508114960629781
0.268807667216714896,0.036037300212235335,-0.118223963726026268
0.270648815622308803,0.036509032663206764,-0.118938001229628790
0.272489964027902765,0.036983365058684041,-0.119650219505786734
0.274331112433496671,0.037460285807414416,-0.120360610666518209
0.276172260839090633,0.037939783273313633,-0.121069166901635911
0.278013409244684540,0.038421845776048923,-0.121775880478865603
0.279854557650278502,0.038906461591621311,-0.122480743743959675
0.281695706055872463,0.039393618952949155,-0.123183749120803959
0.283536854461466370,0.039883306050452462,-0.123884889111518723
0.285378002867060332,0.040375511032637347,-0.124584156296553408
0.287219151272654238,0.040870222006682333,-0.125281543334775397
0.289060299678248200,0.041367427039023186,-0.125977042963553110
0.290901448083842162,0.041867114155941389,-0.126670647998832403
0.292742596489436069,0.042369271344148696,-0.127362351335207569
0.294583744895030031,0.042873886551377777,-0.128052145945986379
0.296424893300623937,0.043380947686967437,-0.128740024883248594
0.298266041706217899,0.043890442622451988,-0.129425981277899504
0.300107190111811861,0.044402359192150291,-0.130110008339716754
0.301948338517405712,0.044916685193753920,-0.130792099357391806
0.303789486922999674,0.045433408388916137,-0.131472247698565303
0.305630635328593636,0.045952516503842203,-0.132150446809856881
0.307471783734187543,0.046473997229876975,-0.132826690216888837
0.309312932139781505,0.046997838224095999,-0.133500971524304485
0.311154080545375467,0.047524027109893306,-0.134173284415780664
0.312995228950969373,0.048052551477572474,-0.134843622654034045
0.314836377356563335,0.048583398884934577,-0.135511980080822825
0.316677525762157297,0.049116556857869087,-0.136178350616941557
0.318518674167751148,0.049652012890940289,-0.136842728262211361
0.320359822573345110,0.050189754447979067,-0.137505107095464291
0.322200970978939072,0.050729768962669577,-0.138165481274521468
0.324042119384532978,0.051272043839138880,-0.138823845036167071
0.325883267790126940,0.051816566452543664,-0.139480192696115446
0.327724416195720902,0.052363324149659357,-0.140134518648973722
0.329565564601314809,0.052912304249466149,-0.140786817368198758
0.331406713006908771,0.053463494043736612,-0.141437083406048325
0.333247861412502677,0.054016880797620938,-0.142085311393527702
0.335089009818096639,0.054572451750234771,-0.142731496040330141
0.336930158223690601,0.055130194115241810,-0.143375632134772724
0.338771306629284452,0.055690095081439885,-0.144017714543726472
0.340612455034878414,0.056252141813344370,-0.144657738212542103
0.342453603440472376,0.056816321451771783,-0.145295698164969067
0.344294751846066283,0.057382621114421724,-0.145931589503071224
0.346135900251660245,0.057951027896458208,-0.146565407407136278
0.347977048657254207,0.058521528871090890,-0.147197147135580464
0.349818197062848113,0.059094111090155950,-0.147826804024848546
0.351659345468442075,0.059668761584692503,-0.148454373489308261
0.353500493874036037,0.060245467365523199,-0.149079851021140408
0.355341642279629888,0.060824215423829903,-0.149703232190223190
0.357182790685223850,0.061404992731730092,-0.150324512644013364
0.359023939090817812,0.061987786242851797,-0.150943688107420149
0.360865087496411718,0.062572582892907194,-0.151560754382676688
0.362706235902005680,0.063159369600265844,-0.152175707349205575
0.364547384307599642,0.063748133266525217,-0.152788542963479462
0.366388532713193549,0.064338860777082132,-0.153399257258877902
0.368229681118787511,0.064931539001700844,-0.154007846345539157
0.370070829524381473,0.065526154795081240,-0.154614306410207153
0.371911977929975379,0.066122694997425249,-0.155218633716074084
0.373753126335569286,0.066721146435001363,-0.155820824602619090
0.375594274741163248,0.067321495920708824,-0.156420875485441840
0.377435423146757154,0.067923730254638839,-0.157018782856091360
0.379276571552351116,0.068527836224636610,-0.157614543281891950
0.381117719957945078,0.069133800606859502,-0.158208153405763302
0.382958868363538985,0.069741610166334941,-0.158799609946037118
0.384800016769132947,0.070351251657516489,-0.159388909696269149
0.386641165174726908,0.070962711824837724,-0.159976049525047820
0.388482313580320815,0.071575977403266142,-0.160561026375797222
0.390323461985914777,0.072191035118852415,-0.161143837266577827
0.392164610391508739,0.072807871689282128,-0.161724479289881790
0.394005758797102590,0.073426473824421037,-0.162302949612424835
0.395846907202696552,0.074046828226862121,-0.162879245474934070
0.397688055608290514,0.074668921592469475,-0.163453364191932127
0.399529204013884420,0.075292740610920089,-0.164025303151516588
0.401370352419478382,0.075918271966244316,-0.164595059815137418
0.403211500825072344,0.076545502337364110,-0.165162631717367947
0.405052649230666251,0.077174418398629749,-0.165728016465674838
0.406893797636260213,0.077805006820354239,-0.166291211740182632
0.408734946041854175,0.078437254269343976,-0.166852215293435385
0.410576094447448026,0.079071147409432219,-0.167411024950154252
0.412417242853041988,0.079706672902005740,-0.167967638606992098
0.414258391258635950,0.080343817406530002,-0.168522054232284280
0.416099539664229856,0.080982567581075346,-0.169074269865795657
0.417940688069823818,0.081622910082837632,-0.169624283618465377
0.419781836475417780,0.082264831568658436,-0.170172093672146668
0.421622984881011686,0.082908318695542257,-0.170717698279344632
0.423464133286605648,0.083553358121173121,-0.171261095762950372
0.425305281692199555,0.084199936504424908,-0.171802284515971376
0.427146430097793517,0.084848040505875952,-0.172341263001259820
0.428987578503387423,0.085497656788313864,-0.172878029751236562
0.430828726908981330,0.086148772017244205,-0.173412583367613199
0.432669875314575292,0.086801372861393028,-0.173944922521110268
0.434511023720169254,0.087455445993208772,-0.174475045951172553
0.436352172125763160,0.088110978089360567,-0.175002952465682149
0.438193320531357122,0.088767955831235937,-0.175528640940667641
0.440034468936951084,0.089426365905433874,-0.176052110320011418
0.441875617342544991,0.090086195004256686,-0.176573359615153386
0.443716765748138953,0.090747429826199100,-0.177092387904792536
0.445557914153732915,0.091410057076434958,-0.177609194334585357
0.447399062559326766,0.092074063467301390,-0.178123778116841963
0.449240210964920728,0.092739435718779448,-0.178636138530219701
0.451081359370514690,0.093406160558973717,-0.179146274919413206
0.452922507776108596,0.094074224724588207,-0.179654186694843759
0.454763656181702558,0.094743614961399630,-0.180159873332344317
0.456604804587296520,0.095414318024729175,-0.180663334372843543
0.458445952992890426,0.096086320679910020,-0.181164569422046062
0.460287101398484388,0.096759609702752283,-0.181663578150112359
0.462128249804078350,0.097434171880007747,-0.182160360291334172
0.463969398209672201,0.098109994009827381,-0.182654915643809534
0.465810546615266163,0.098787062902221154,-0.183147244069114201
0.467651695020860125,0.099465365379510839,-0.183637345491972082
0.469492843426454032,0.100144888276782099,-0.184125219899922588
0.471333991832047994,0.100825618442333800,-0.184610867342987039
0.473175140237641956,0.101507542738123749,-0.185094287933331797
0.475016288643235862,0.102190648040212134,-0.185575481844930418
0.476857437048829824,0.102874921239202152,-0.186054449313223541
0.478698585454423786,0.103560349240676725,-0.186531190634776994
0.480539733860017693,0.104246918965633317,-0.187005706166937485
0.482380882265611655,0.104934617350916914,-0.187477996327488183
0.484222030671205561,0.105623431349646413,-0.187948061594300192
0.486063179076799468,0.106313347931642932,-0.188415902504984245
0.487904327482393430,0.107004354083850839,-0.188881519656540153
0.489745475887987392,0.107696436810758842,-0.189344913705004031
0.491586624293581298,0.108389583134815629,-0.189806085365095217
0.493427772699175260,0.109083780096845578,-0.190265035409860533
0.495268921104769222,0.109779014756457710,-0.190721764670317762
0.497110069510363128,0.110475274192455425,-0.191176274035097127
0.498951217915957090,0.111172545503239795,-0.191628564450082139
0.500792366321550997,0.111870815807212920,-0.192078636918048634
0.502633514727144903,0.112570072243174654,-0.192526492498302143
0.504474663132738921,0.113270301970720202,-0.192972132306315214
0.506315811538332827,0.113971492170632516,-0.193415557513361841
0.508156959943926734,0.114673630045270383,-0.193856769346152424
0.509998108349520751,0.115376702818956609,-0.194295769086466313
0.511839256755114658,0.116080697738359745,-0.194732558070784045
0.513680405160708564,0.116785602072876082,-0.195167137689917919
0.515521553566302471,0.117491403115004639,-0.195599509388642151
0.517362701971896488,0.118198088180723443,-0.196029674665321979
0.519203850377490395,0.118905644609857891,-0.196457635071541264
0.521044998783084301,0.119614059766450467,-0.196883392211729569
0.522886147188678208,0.120323321039124242,-0.197306947742789063
0.524727295594272225,0.121033415841444170,-0.197728303373719549
0.526568443999866131,0.121744331612275283,-0.198147460865242819
0.528409592405460038,0.122456055816137818,-0.198564422029427506
0.530250740811053944,0.123168575943559691,-0.198979188729311751
0.532091889216647962,0.123881879511423515,-0.199391762878526169
0.533933037622241868,0.124595954063313127,-0.199802146440915346
0.535774186027835775,0.125310787169855636,-0.200210341430160310
0.537615334433429792,0.126026366429060704,-0.200616349909398417
0.539456482839023699,0.126742679466655100,-0.201020173990844597
0.541297631244617605,0.127459713936416419,-0.201421815835410634
0.543138779650211623,0.128177457520502386,-0.201821277652325354
0.544979928055805529,0.128895897929776598,-0.202218561698753546
0.546821076461399436,0.129615022904131155,-0.202613670279414487
0.548662224866993342,0.130334820212806901,-0.203006605746201191
0.550503373272587249,0.131055277654710062,-0.203397370497797852
0.552344521678181266,0.131776383058724189,-0.203785966979298155
0.554185670083775173,0.132498124284021579,-0.204172397681823353
0.556026818489369079,0.133220489220368860,-0.204556665142139382
0.557867966894963097,0.133943465788431443,-0.204938771942274750
0.559709115300557003,0.134667041940072785,-0.205318720709137398
0.561550263706150909,0.135391205658652369,-0.205696514114132728
0.563391412111744927,0.136115944959318447,-0.206072154872780272
0.565232560517338833,0.136841247889299605,-0.206445645744331191
0.567073708922932740,0.137567102528190849,-0.206816989531385442
0.568914857328526646,0.138293496988238923,-0.207186189079509447
0.570756005734120664,0.139020419414622065,-0.207553247276853120
