# omega (a.u.), Re alpha(w), Im alpha(w)
0.000000000000000000e+00,0.000000000000000000e+00,0.000000000000000000e+00
1.841148405593937476e-03,-1.770127651444617796e-06,-5.869016151841666530e-05
3.682296811187874951e-03,-7.079882977209128357e-06,-1.174323213836871561e-04
5.523445216781813077e-03,-1.592701504884143035e-05,-1.762780757032058113e-04
7.364593622375749903e-03,-2.830806952946684048e-05,-2.352785821287907073e-04
9.205742027969688462e-03,-4.421860446478757941e-05,-2.944845602562265246e-04
1.104689043356362615e-02,-6.360135851370466147e-05,-3.539462920393321183e-04
1.288803883915756211e-02,-8.655348864663073663e-05,-4.137136222184837828e-04
1.472918724475149981e-02,-1.130161406784298733e-04,-4.738359587635262863e-04
1.657033565034543576e-02,-1.429809417180962340e-04,-5.343622733309959976e-04
1.841148405593937692e-02,-1.764401199190183576e-04,-5.953411017355948742e-04
2.025263246153331115e-02,-2.133826662112982839e-04,-6.568205444358338890e-04
2.209378086712725231e-02,-2.537993650864876533e-04,-7.188482670337840953e-04
2.393492927272118653e-02,-2.976787805524107430e-04,-7.814715007888571596e-04
2.577607767831512423e-02,-3.450088854153451554e-04,-8.447370431455473831e-04
2.761722608390906192e-02,-3.957797577932090083e-04,-9.086912582750613764e-04
2.945837448950299961e-02,-4.499761280595204424e-04,-9.733800776307619885e-04
3.129952289509693730e-02,-5.075852268288541611e-04,-1.038849000517356666e-03
3.314067130069087153e-02,-5.685936719019851629e-04,-1.105143094673753700e-03
3.498181970628481269e-02,-6.329855447567414237e-04,-1.172306996869517835e-03
3.682296811187875385e-02,-7.007454106876671559e-04,-1.240384913514839919e-03
3.866411651747268807e-02,-7.718631961260373053e-04,-1.309420621283965839e-03
4.050526492306662230e-02,-8.463158013470718603e-04,-1.379457467751988133e-03
4.234641332866055652e-02,-9.240869545429158081e-04,-1.450538372044945330e-03
4.418756173425450462e-02,-1.005164039134851190e-03,-1.522705825503140519e-03
4.602871013984843884e-02,-1.089529849457605273e-03,-1.596001892357606314e-03
4.786985854544237307e-02,-1.177161685415627169e-03,-1.670468210419646373e-03
4.971100695103631423e-02,-1.268042274734618342e-03,-1.746145991783380194e-03
5.155215535663024845e-02,-1.362154782463454025e-03,-1.823076023541191646e-03
5.339330376222418961e-02,-1.459473507808610460e-03,-1.901298668512038529e-03
5.523445216781812384e-02,-1.559990902026311098e-03,-1.980853865982521236e-03
5.707560057341206500e-02,-1.663730808535309868e-03,-2.061781132460647863e-03
5.891674897900599922e-02,-1.770567061992275046e-03,-2.144119562442203374e-03
6.075789738459993344e-02,-1.880533922313380388e-03,-2.227907829189667340e-03
6.259904579019387461e-02,-1.993555860219182498e-03,-2.313184185523580252e-03
6.444019419578780883e-02,-2.109721853013529335e-03,-2.399986464626294256e-03
6.628134260138174305e-02,-2.228947699889985163e-03,-2.488352080858022633e-03
6.812249100697569115e-02,-2.351205052016813474e-03,-2.578318030585121691e-03
6.996363941256962538e-02,-2.476492916000989312e-03,-2.669920893020505306e-03
7.180478781816355960e-02,-2.604775712363514243e-03,-2.763196831076133574e-03
7.364593622375750770e-02,-2.736042072903200565e-03,-2.858181592227483636e-03
7.548708462935142804e-02,-2.870249784941733637e-03,-2.954910509389933708e-03
7.732823303494537615e-02,-3.007376853258839858e-03,-3.053418501806968392e-03
7.916938144053932425e-02,-3.147415171351621022e-03,-3.153740075950134131e-03
8.101052984613324459e-02,-3.290321468309144633e-03,-3.255909326430665024e-03
8.285167825172719269e-02,-3.436071086250337778e-03,-3.359959936922691810e-03
8.469282665732111304e-02,-3.584677406882856923e-03,-3.465925181097959454e-03
8.653397506291506114e-02,-3.736043376044614808e-03,-3.573837923571976122e-03
8.837512346850900924e-02,-3.890220493715425103e-03,-3.683730620861492503e-03
9.021627187410292958e-02,-4.047127731512010010e-03,-3.795635322353268105e-03
9.205742027969687769e-02,-4.206763044124571700e-03,-3.909583671284005274e-03
9.389856868529081191e-02,-4.369086426580136989e-03,-4.025606905731382405e-03
9.573971709088474613e-02,-4.534091947011491437e-03,-4.143735859616119559e-03
9.758086549647869423e-02,-4.701733292316881245e-03,-4.264000963714979775e-03
9.942201390207262846e-02,-4.871971404229119909e-03,-4.386432246684611111e-03
1.012631623076665627e-01,-5.044817458947220556e-03,-4.511059336096194701e-03
1.031043107132604969e-01,-5.220221256518505805e-03,-4.637911459480741419e-03
1.049454591188544450e-01,-5.398172173717349226e-03,-4.767017445385044946e-03
1.067866075244483792e-01,-5.578613839584347853e-03,-4.898405724438129050e-03
1.086277559300423134e-01,-5.761526476140678421e-03,-5.032104330428153506e-03
1.104689043356362477e-01,-5.946893302133814466e-03,-5.168140901389672859e-03
1.123100527412301819e-01,-6.134672352040497316e-03,-5.306542680701189021e-03
1.141512011468241300e-01,-6.324839987326619402e-03,-5.447336518192873699e-03
1.159923495524180503e-01,-6.517330244842837843e-03,-5.590548871264441541e-03
1.178334979580119984e-01,-6.712191936255222820e-03,-5.736205806013012706e-03
1.196746463636059465e-01,-6.909359194632560403e-03,-5.884332998370930996e-03
1.215157947691998669e-01,-7.108796414339107854e-03,-6.034955735253469920e-03
1.233569431747938150e-01,-7.310469552445386307e-03,-6.188098915716290505e-03
1.251980915803877492e-01,-7.514361806713308785e-03,-6.343787052122584064e-03
1.270392399859816834e-01,-7.720444370140920436e-03,-6.502044271319866106e-03
1.288803883915756177e-01,-7.928680683921733932e-03,-6.662894315826247034e-03
1.307215367971695519e-01,-8.139025123009688625e-03,-6.826360545026180504e-03
1.325626852027634861e-01,-8.351425571289162672e-03,-6.992465936375562817e-03
1.344038336083574481e-01,-8.565969261408673888e-03,-7.161233086616079248e-03
1.362449820139513823e-01,-8.782528265275606552e-03,-7.332684212998784312e-03
1.380861304195453165e-01,-9.000987623074004074e-03,-7.506841154516740756e-03
1.399272788251392508e-01,-9.221534652808028101e-03,-7.683725373146719009e-03
1.417684272307331850e-01,-9.443978220477454444e-03,-7.863357955099800969e-03
1.436095756363271192e-01,-9.668341436061217084e-03,-8.045759612080840423e-03
1.454507240419210812e-01,-9.894524441461978112e-03,-8.230950682556704631e-03
1.472918724475150154e-01,-1.012255795924043092e-02,-8.418951133033180864e-03
1.491330208531089496e-01,-1.035244849010275373e-02,-8.609780559340486292e-03
1.509741692587028561e-01,-1.058412099004188076e-02,-8.803458187927278022e-03
1.528153176642968181e-01,-1.081754036139639247e-02,-9.000002877163114715e-03
1.546564660698907523e-01,-1.105260638730050891e-02,-9.199433118649215368e-03
1.564976144754846865e-01,-1.128945583296966752e-02,-9.401767038537525711e-03
1.583387628810786485e-01,-1.152791845326140568e-02,-9.607022398857896148e-03
1.601799112866725550e-01,-1.176799017142927777e-02,-9.815216598853419849e-03
1.620210596922664892e-01,-1.200960923061126541e-02,-1.002636667632370200e-02
1.638622080978604512e-01,-1.225283091549816787e-02,-1.024048930897606194e-02
1.657033565034543854e-01,-1.249763668245717704e-02,-1.045760081578459011e-02
1.675445049090483196e-01,-1.274381278449675248e-02,-1.067771715835692803e-02
1.693856533146422261e-01,-1.299152988170109574e-02,-1.090085394230870704e-02
1.712268017202361881e-01,-1.324059046222880558e-02,-1.112702641864559902e-02
1.730679501258301223e-01,-1.349114649325401823e-02,-1.135624948515273624e-02
1.749090985314240565e-01,-1.374297968254502983e-02,-1.158853768779171366e-02
1.767502469370180185e-01,-1.399625474019738046e-02,-1.182390522210478336e-02
1.785913953426119249e-01,-1.425069650506107649e-02,-1.206236593462627071e-02
1.804325437482058592e-01,-1.450649592838704378e-02,-1.230393332430125206e-02
1.822736921537998211e-01,-1.476355082844487548e-02,-1.254862054391116255e-02
1.841148405593937554e-01,-1.502166087349656939e-02,-1.279644040150646790e-02
1.859559889649876896e-01,-1.528108374967982776e-02,-1.304740536184619340e-02
1.877971373705816238e-01,-1.554158958791394297e-02,-1.330152754784428779e-02
1.896382857761755580e-01,-1.580316786056489703e-02,-1.355881874202263283e-02
1.914794341817694923e-01,-1.606582328089210462e-02,-1.381929038797080275e-02
1.933205825873634542e-01,-1.632949626428778153e-02,-1.408295359181227502e-02
1.951617309929573885e-01,-1.659426780817442257e-02,-1.434981912367714815e-02
1.970028793985512949e-01,-1.685992005538217153e-02,-1.461989741918124502e-02
1.988440278041452569e-01,-1.712651418779449417e-02,-1.489319858091152707e-02
2.006851762097391911e-01,-1.739402699616111186e-02,-1.516973237991764076e-02
2.025263246153331254e-01,-1.766238538754269158e-02,-1.544950825720967612e-02
2.043674730209270873e-01,-1.793156991869181149e-02,-1.573253532526197596e-02
2.062086214265209938e-01,-1.820161895950360431e-02,-1.601882236952276162e-02
2.080497698321149280e-01,-1.847236327906787851e-02,-1.630837784992981987e-02
2.098909182377088900e-01,-1.874375649445620892e-02,-1.660120990243184325e-02
2.117320666433028242e-01,-1.901606646631686867e-02,-1.689732634051552621e-02
2.135732150488967585e-01,-1.928894152391426656e-02,-1.719673465673823495e-02
2.154143634544906649e-01,-1.956248368076615729e-02,-1.749944202426630471e-02
2.172555118600846269e-01,-1.983650331620956733e-02,-1.780545529841870075e-02
2.190966602656785611e-01,-2.011128161800455894e-02,-1.811478101821602585e-02
2.209378086712724953e-01,-2.038642422498760862e-02,-1.842742540793487413e-02
2.227789570768664573e-01,-2.066224673818182686e-02,-1.874339437866740996e-02
2.246201054824603638e-01,-2.093832323555387329e-02,-1.906269352988592194e-02
2.264612538880542980e-01,-2.121507299488179302e-02,-1.938532815101255344e-02
2.283024022936482600e-01,-2.149211015308634745e-02,-1.971130322299388671e-02
2.301435506992421942e-01,-2.176957677606320904e-02,-2.004062341988039481e-02
2.319846991048361007e-01,-2.204737006696249474e-02,-2.037329311041076105e-02
2.338258475104300627e-01,-2.232531174937688045e-02,-2.070931635960079550e-02
2.356669959160239969e-01,-2.260373800489795179e-02,-2.104869693033692077e-02
2.375081443216179311e-01,-2.288229888920381011e-02,-2.139143828497433800e-02
2.393492927272118931e-01,-2.316123091341903972e-02,-2.173754358693958180e-02
2.411904411328058273e-01,-2.344021228204259955e-02,-2.208701570233728012e-02
2.430315895383997338e-01,-2.371929127066354365e-02,-2.243985720156148334e-02
2.448727379439936958e-01,-2.399866532558841623e-02,-2.279607036091093122e-02
2.467138863495876300e-01,-2.427795657438526142e-02,-2.315565716420850753e-02
2.485550347551815642e-01,-2.455736738794214377e-02,-2.351861930442487175e-02
2.503961831607754984e-01,-2.483670557749340785e-02,-2.388495818530579629e-02
2.522373315663694604e-01,-2.511603002846966165e-02,-2.425467492300356631e-02
2.540784799719633669e-01,-2.539536770791911424e-02,-2.462777034771203993e-02
2.559196283775573288e-01,-2.567467795304640560e-02,-2.500424500530554553e-02
2.577607767831512353e-01,-2.595383538029275017e-02,-2.538409915898120692e-02
2.596019251887451973e-01,-2.623286473326857243e-02,-2.576733279090501552e-02
2.614430735943391038e-01,-2.651153744297897463e-02,-2.615394560386120545e-02
2.632842219999330657e-01,-2.679031690172362090e-02,-2.654393702290510151e-02
2.651253704055269722e-01,-2.706870326463299906e-02,-2.693730619701920070e-02
2.669665188111209342e-01,-2.734684655573457052e-02,-2.733405200077254280e-02
2.688076672167148962e-01,-2.762467214538586943e-02,-2.773417303598308889e-02
2.706488156223088026e-01,-2.790220756594160786e-02,-2.813766763338330229e-02
2.724899640279027646e-01,-2.817911627336231947e-02,-2.854453385428867493e-02
2.743311124334966711e-01,-2.845578888360150716e-02,-2.895476949226892527e-02
2.761722608390906331e-01,-2.873226472707393966e-02,-2.936837207482245055e-02
2.780134092446845395e-01,-2.900817943250386804e-02,-2.978533886505309661e-02
2.798545576502785015e-01,-2.928324341596926991e-02,-3.020566686334971371e-02
2.816957060558724635e-01,-2.955819375157804282e-02,-3.062935280906846011e-02
2.835368544614663699e-01,-2.983247647285955720e-02,-3.105639318221733655e-02
2.853780028670603319e-01,-3.010604168810136760e-02,-3.148678420514330195e-02
2.872191512726542384e-01,-3.037911603874387384e-02,-3.192052184422169286e-02
2.890602996782482004e-01,-3.065161774759483579e-02,-3.235760181154792581e-02
2.909014480838421624e-01,-3.092324302552509549e-02,-3.279801956663126045e-02
2.927425964894360688e-01,-3.119428827159666587e-02,-3.324177031809084221e-02
2.945837448950300308e-01,-3.146479246578449268e-02,-3.368884902535370512e-02
2.964248933006239373e-01,-3.173431609742503184e-02,-3.413925040035456493e-02
2.982660417062178992e-01,-3.200319035586268041e-02,-3.459296890923783258e-02
3.001071901118118612e-01,-3.227103550052550646e-02,-3.504999877406102249e-02
3.019483385174057122e-01,-3.253820341624674706e-02,-3.551033397450003432e-02
3.037894869229996742e-01,-3.280435345193364466e-02,-3.597396824955646777e-02
3.056306353285936361e-01,-3.306922344816112108e-02,-3.644089509926565912e-02
3.074717837341875426e-01,-3.333355395061276399e-02,-3.691110778640693812e-02
3.093129321397815046e-01,-3.359726273432812188e-02,-3.738459933821507153e-02
3.111540805453754666e-01,-3.385927033308361311e-02,-3.786136254809285145e-02
3.129952289509693730e-01,-3.412077730834310596e-02,-3.834138997732522425e-02
3.148363773565633350e-01,-3.438112733737604121e-02,-3.882467395679449484e-02
3.166775257621572970e-01,-3.464020687820418970e-02,-3.931120658869644707e-02
3.185186741677511479e-01,-3.489826145338455893e-02,-3.980097974825784479e-02
3.203598225733451099e-01,-3.515538982294590109e-02,-4.029398508545476570e-02
3.222009709789390719e-01,-3.541083695372690410e-02,-4.079021402673158048e-02
3.240421193845329784e-01,-3.566550581135630865e-02,-4.128965777672096577e-02
3.258832677901269403e-01,-3.591873504297969644e-02,-4.179230731996486786e-02
3.277244161957209023e-01,-3.617082789477615162e-02,-4.229815342263566064e-02
3.295655646013148088e-01,-3.642149789964388429e-02,-4.280718663425804593e-02
3.314067130069087708e-01,-3.667094859475772406e-02,-4.331939728943187684e-02
3.332478614125026772e-01,-3.691905181667748392e-02,-4.383477550955471036e-02
3.350890098180966392e-01,-3.716589142984702554e-02,-4.435331120454533149e-02
3.369301582236906012e-01,-3.741108763577266627e-02,-4.487499407456738837e-02
3.387713066292844521e-01,-3.765496409422379454e-02,-4.539981361175304125e-02
3.406124550348784141e-01,-3.789740118712770639e-02,-4.592775910192712502e-02
3.424536034404723761e-01,-3.813838349342815737e-02,-4.645881962633113121e-02
3.442947518460662826e-01,-3.837789410463207651e-02,-4.699298406334721789e-02
3.461359002516602446e-01,-3.861549614768994276e-02,-4.753024109022245536e-02
3.479770486572542065e-01,-3.885217838547749131e-02,-4.807057918479253067e-02
3.498181970628481130e-01,-3.908688903240819384e-02,-4.861398662720547298e-02
3.516593454684420750e-01,-3.931982138676692884e-02,-4.916045150164511518e-02
3.535004938740360370e-01,-3.955158403672838496e-02,-4.970996169805419473e-02
3.553416422796298879e-01,-3.978116106583368811e-02,-5.026250491385699654e-02
3.571827906852238499e-01,-4.000948913159931702e-02,-5.081806865568160719e-02
3.590239390908178119e-01,-4.023568342717519924e-02,-5.137664024108151012e-02
3.608650874964117183e-01,-4.046058388768571101e-02,-5.193820680025660469e-02
3.627062359020056803e-01,-4.068325541554836805e-02,-5.250275527777371193e-02
3.645473843075996423e-01,-4.090459584639189600e-02,-5.307027243428601160e-02
3.663885327131935488e-01,-4.112391493827740468e-02,-5.364074484825193806e-02
3.682296811187875107e-01,-4.134140061816607425e-02,-5.421415891765300754e-02
3.700708295243814727e-01,-4.155668412853803784e-02,-5.479050086171092376e-02
3.719119779299753792e-01,-4.177001783521967077e-02,-5.536975672260321252e-02
3.737531263355692857e-01,-4.198175500968338164e-02,-5.595191236717843991e-02
3.755942747411632476e-01,-4.219222307666016525e-02,-5.653695348866964732e-02
3.774354231467571541e-01,-4.240001065060998442e-02,-5.712486560840685651e-02
3.792765715523511161e-01,-4.260596052850270515e-02,-5.771563407752837438e-02
3.811177199579450781e-01,-4.280962669417125166e-02,-5.830924407869059883e-02
3.829588683635389845e-01,-4.301153407083786739e-02,-5.890568062777624264e-02
3.848000167691329465e-01,-4.321135543682516622e-02,-5.950492857560171073e-02
3.866411651747269085e-01,-4.340892480743600151e-02,-6.010697260962218069e-02
3.884823135803208149e-01,-4.360441566317825590e-02,-6.071179725563543433e-02
3.903234619859147769e-01,-4.379771941156190840e-02,-6.131938687948412098e-02
3.921646103915087389e-01,-4.398906184649395423e-02,-6.192972568875620976e-02
3.940057587971025899e-01,-4.417801304863162165e-02,-6.254279773448331858e-02
3.958469072026965518e-01,-4.436505909093465400e-02,-6.315858691283787740e-02
3.976880556082905138e-01,-4.454952084811131946e-02,-6.377707696682753669e-02
3.995292040138844203e-01,-4.473142523302577056e-02,-6.439825148798837551e-02
4.013703524194783823e-01,-4.491237764340818422e-02,-6.502209391807554917e-02
4.032115008250723442e-01,-4.508977995687918350e-02,-6.564858755075199392e-02
4.050526492306662507e-01,-4.526529105070751374e-02,-6.627771553327505005e-02
4.068937976362602127e-01,-4.543856867345531791e-02,-6.690946086818064242e-02
4.087349460418541747e-01,-4.560919620358266230e-02,-6.754380641496557369e-02
4.105760944474480256e-01,-4.577795119596685808e-02,-6.818073489176687541e-02
4.124172428530419876e-01,-4.594376365163218429e-02,-6.882022887703945213e-02
4.142583912586359496e-01,-4.610751587185368122e-02,-6.946227081123061697e-02
4.160995396642298561e-01,-4.626875525878865192e-02,-7.010684299845253153e-02
4.179406880698238180e-01,-4.642711916438625741e-02,-7.075392760815181481e-02
4.197818364754177800e-01,-4.658410742154148881e-02,-7.140350667677697327e-02
4.216229848810116865e-01,-4.673740053011979367e-02,-7.205556210944219497e-02
4.234641332866056485e-01,-4.688827798373745859e-02,-7.271007568158964485e-02
4.253052816921995549e-01,-4.703693620485418364e-02,-7.336702904064769382e-02
4.271464300977935169e-01,-4.718335451833524652e-02,-7.402640370768738542e-02
4.289875785033874234e-01,-4.732687092333037748e-02,-7.468818107907496118e-02
4.308287269089813298e-01,-4.746768308264496389e-02,-7.535234242812252625e-02
4.326698753145752918e-01,-4.760588491673691663e-02,-7.601886890673457964e-02
4.345110237201692538e-01,-4.774189121605392633e-02,-7.668774154705201851e-02
4.363521721257631603e-01,-4.787482100539191404e-02,-7.735894126309317276e-02
4.381933205313571222e-01,-4.800463770390438201e-02,-7.803244885239123130e-02
4.400344689369510842e-01,-4.813267955345332250e-02,-7.870824499762849036e-02
4.418756173425449907e-01,-4.825774253457504326e-02,-7.938631026826752091e-02
4.437167657481389527e-01,-4.837935258577256981e-02,-8.006662512217904704e-02
4.455579141537329146e-01,-4.849918153047678288e-02,-8.074916990726556387e-02
4.473990625593267656e-01,-4.861534638657096646e-02,-8.143392486308285994e-02
4.492402109649207276e-01,-4.872968928560988955e-02,-8.212087012245687656e-02
4.510813593705146896e-01,-4.884035220539070105e-02,-8.280998571309761136e-02
4.529225077761085960e-01,-4.894857196951767075e-02,-8.350125155920892772e-02
4.547636561817025580e-01,-4.905438700645397415e-02,-8.419464748309540836e-02
4.566048045872965200e-01,-4.915680111875771197e-02,-8.489015320676455978e-02
4.584459529928904264e-01,-4.925631829885784851e-02,-8.558774835352617183e-02
4.602871013984843884e-01,-4.935344402055197310e-02,-8.628741244958719470e-02
4.621282498040783504e-01,-4.944723599860968016e-02,-8.698912492564300769e-02
4.639693982096722014e-01,-4.953841215029229639e-02,-8.769286511846456633e-02
4.658105466152661633e-01,-4.962619690419658308e-02,-8.839861227248219100e-02
4.676516950208601253e-01,-4.971138083788215201e-02,-8.910634554136440122e-02
4.694928434264540318e-01,-4.979348336548691800e-02,-8.981604398959340541e-02
4.713339918320479938e-01,-4.987250401503789954e-02,-9.052768659403617746e-02
4.731751402376419557e-01,-4.994885442809151449e-02,-9.124125224551145330e-02
4.750162886432358622e-01,-5.002181374952239384e-02,-9.195671975035253631e-02
