# omega (a.u.), Re alpha(w), Im alpha(w)
0.000000000000000000,0.000000000000000000,0.000000000000000000
0.001841148405593937,0.000001167276106317,-0.000577029211949804
0.003682296811187875,0.000004669073628730,-0.001154048830288881
0.005523445216781813,0.000010505300178570,-0.001731049261885009
0.007364593622375750,0.000018675801781361,-0.002308020914562914
0.009205742027969688,0.000029180362884019,-0.002884954197582635
0.011046890433563626,0.000042018706368765,-0.003461839522117729
0.012888038839157562,0.000057190493567758,-0.004038667301733291
0.014729187244751500,0.000074695324283276,-0.004615427952863742
0.016570335650345436,0.000094532736809363,-0.005192111895290289
0.018411484055939377,0.000116702207959265,-0.005768709552618115
0.020252632461533311,0.000141203153094425,-0.006345211352753102
0.022093780867127252,0.000168034926158062,-0.006921607728378199
0.023934929272721187,0.000197196819711916,-0.007497889117429240
0.025776077678315124,0.000228688064976391,-0.008074045963570304
0.027617226083909062,0.000262507831874284,-0.008650068716668412
0.029458374489503000,0.000298655229078026,-0.009225947833267707
0.031299522895096937,0.000337129304060565,-0.009801673777062829
0.033140671300690872,0.000377929043148814,-0.010377237019371705
0.034981819706284813,0.000421053371582277,-0.010952628039607488
0.036822968111878754,0.000466501153573067,-0.011527837325749701
0.038664116517472688,0.000514271192371272,-0.012102855374814534
0.040505264923066622,0.000564362230332168,-0.012677672693324206
0.042346413328660557,0.000616772948988156,-0.013252279797775424
0.044187561734254505,0.000671501969123560,-0.013826667215106784
0.046028710139848439,0.000728547850852441,-0.014400825483165128
0.047869858545442373,0.000787909093700671,-0.014974745151170886
0.049711006951036314,0.000849584136690762,-0.015548416780182157
0.051552155356630248,0.000913571358430380,-0.016121830943557715
0.053393303762224190,0.000979869077204129,-0.016694978227418698
0.055234452167818124,0.001048475551069169,-0.017267849231109095
0.057075600573412065,0.001119388977953444,-0.017840434567654849
0.058916748979005999,0.001192607495757592,-0.018412724864221623
0.060757897384599933,0.001268129182460541,-0.018984710762571175
0.062599045790193875,0.001345952056227925,-0.019556382919516214
0.064440194195787809,0.001426074075524295,-0.020127732007373847
0.066281342601381743,0.001508493139228344,-0.020698748714417327
0.068122491006975691,0.001593207086751537,-0.021269423745326484
0.069963639412569625,0.001680213698159785,-0.021839747821636172
0.071804787818163560,0.001769510694299108,-0.022409711682183354
0.073645936223757508,0.001861095736923858,-0.022979306083552288
0.075487084629351428,0.001954966428828306,-0.023548521800518005
0.077328233034945376,0.002051120313981703,-0.024117349626487986
0.079169381440539324,0.002149554877666940,-0.024685780373942024
0.081010529846133245,0.002250267546621439,-0.025253804874870094
0.082851678251727193,0.002353255689181799,-0.025821413981208432
0.084692826657321113,0.002458516615432063,-0.026388598565273574
0.086533975062915061,0.002566047577354209,-0.026955349520194370
0.088375123468509009,0.002675845768982943,-0.027521657760341964
0.090216271874102930,0.002787908326562520,-0.028087514221757686
0.092057420279696878,0.002902232328707206,-0.028652909862578842
0.093898568685290812,0.003018814796565337,-0.029217835663462290
0.095739717090884746,0.003137652693985216,-0.029782282628005845
0.097580865496478694,0.003258742927685629,-0.030346241783167340
0.099422013902072628,0.003382082347428573,-0.030909704179681537
0.101263162307666563,0.003507667746194590,-0.031472660892474712
0.103104310713260497,0.003635495860362025,-0.032035103021076643
0.104945459118854445,0.003765563369889332,-0.032597021690030578
0.106786607524448379,0.003897866898499288,-0.033158408049300356
0.108627755930042313,0.004032403013867770,-0.033719253274675447
0.110468904335636248,0.004169168227813434,-0.034279548568173189
0.112310052741230182,0.004308158996492837,-0.034839285158438607
0.114151201146824130,0.004449371720596660,-0.035398454301141656
0.115992349552418050,0.004592802745548972,-0.035957047279371789
0.117833497958011998,0.004738448361710311,-0.036515055404030036
0.119674646363605947,0.004886304804583241,-0.037072470014218081
0.121515794769199867,0.005036368255019936,-0.037629282477624995
0.123356943174793815,0.005188634839433981,-0.038185484190910918
0.125198091580387749,0.005343100630013805,-0.038741066580088246
0.127039239985981683,0.005499761644939863,-0.039296021100899657
0.128880388391575618,0.005658613848603501,-0.039850339239193656
0.130721536797169552,0.005819653151829787,-0.040404012511296918
0.132562685202763486,0.005982875412102189,-0.040957032464383966
0.134403833608357448,0.006148276433790059,-0.041509390676843769
0.136244982013951382,0.006315851968379410,-0.042061078758643435
0.138086130419545317,0.006485597714705534,-0.042612088351688907
0.139927278825139251,0.006657509319188722,-0.043162411130182543
0.141768427230733185,0.006831582376072702,-0.043712038800977834
0.143609575636327119,0.007007812427665600,-0.044260963103930760
0.145450724041921081,0.007186194964582606,-0.044809175812248324
0.147291872447515015,0.007366725425992938,-0.045356668732833713
0.149133020853108950,0.007549399199867861,-0.045903433706628478
0.150974169258702856,0.007734211623231679,-0.046449462608951345
0.152815317664296818,0.007921157982415675,-0.046994747349834040
0.154656466069890752,0.008110233513313109,-0.047539279874353531
0.156497614475484687,0.008301433401638501,-0.048083052162961396
0.158338762881078648,0.008494752783188477,-0.048626056231809656
0.160179911286672555,0.008690186744103936,-0.049168284133073281
0.162021059692266489,0.008887730321136522,-0.049709727955269532
0.163862208097860451,0.009087378501916552,-0.050250379823573693
0.165703356503454385,0.009289126225222415,-0.050790231900131780
0.167544504909048320,0.009492968381253557,-0.051329276384369342
0.169385653314642226,0.009698899811905299,-0.051867505513297434
0.171226801720236188,0.009906915311045844,-0.052404911561814614
0.173067950125830122,0.010117009624794645,-0.052941486843005772
0.174909098531424056,0.010329177451805026,-0.053477223708437424
0.176750246937018018,0.010543413443546566,-0.054012114548449439
0.178591395342611925,0.010759712204591640,-0.054546151792443216
0.180432543748205859,0.010978068292902425,-0.055079327909166580
0.182273692153799821,0.011198476220121229,-0.055611635406994750
0.184114840559393755,0.011420930451862382,-0.056143066834207909
0.185955988964987690,0.011645425408005587,-0.056673614779265295
0.187797137370581624,0.011871955462992849,-0.057203271871075483
0.189638285776175558,0.012100514946125459,-0.057732030779263109
0.191479434181769492,0.012331098141863851,-0.058259884214432074
0.193320582587363454,0.012563699290130246,-0.058786824928424894
0.195161730992957388,0.012798312586611236,-0.059312845714578559
0.197002879398551295,0.013034932183064096,-0.059837939407976597
0.198844027804145257,0.013273552187623938,-0.060362098885697588
0.200685176209739191,0.013514166665112334,-0.060885317067059741
0.202526324615333125,0.013756769637349101,-0.061407586913861958
0.204367473020927087,0.014001355083464520,-0.061928901430621144
0.206208621426520994,0.014247916940213752,-0.062449253664805693
0.208049769832114928,0.014496449102293266,-0.062968636707065276
0.209890918237708890,0.014746945422658383,-0.063487043691456857
0.211732066643302824,0.014999399712842889,-0.064004467795667111
0.213573215048896758,0.015253805743279950,-0.064520902241230596
0.215414363454490665,0.015510157243624942,-0.065036340293744777
0.217255511860084627,0.015768447903079682,-0.065550775263080743
0.219096660265678561,0.016028671370717690,-0.066064200503590451
0.220937808671272495,0.016290821255812365,-0.066576609414309901
0.222778957076866457,0.016554891128164786,-0.067087995439158873
0.224620105482460364,0.016820874518434500,-0.067598352067136255
0.226461253888054298,0.017088764918470733,-0.068107672832512275
0.228302402293648260,0.017358555781645739,-0.068615951315016327
0.230143550699242194,0.017630240523188592,-0.069123181140021292
0.231984699104836101,0.017903812520521426,-0.069629355978723911
0.233825847510430063,0.018179265113596341,-0.070134469548321171
0.235666995916023997,0.018456591605233136,-0.070638515612183331
0.237508144321617931,0.018735785261459300,-0.071141487980022483
0.239349292727211893,0.019016839311850633,-0.071643380508057811
0.241190441132805827,0.019299746949873030,-0.072144187099176665
0.243031589538399734,0.019584501333225694,-0.072643901703091915
0.244872737943993696,0.019871095584184827,-0.073142518316495528
0.246713886349587630,0.020159522789950063,-0.073640030983208177
0.248555034755181564,0.020449776002989289,-0.074136433794325135
0.250396183160775498,0.020741848241387244,-0.074631720888358136
0.252237331566369460,0.021035732489193562,-0.075125886451373663
0.254078479971963367,0.021331421696772018,-0.075618924717127306
0.255919628377557329,0.021628908781150920,-0.076110829967193969
0.257760776783151235,0.021928186626374430,-0.076601596531094940
0.259601925188745197,0.022229248083855135,-0.077091218786420390
0.261443073594339104,0.022532085972726549,-0.077579691158948624
0.263284221999933066,0.022836693080197153,-0.078067008122761100
0.265125370405526972,0.023143062161904981,-0.078553164200354034
0.266966518811120934,0.023451185942273769,-0.079038153962745786
0.268807667216714896,0.023761057114868141,-0.079521972029580890
0.270648815622308803,0.024072668342751565,-0.080004613069229749
0.272489964027902765,0.024386012258843313,-0.080486071798885284
0.274331112433496671,0.024701081466277357,-0.080966342984654979
0.276172260839090633,0.025017868538760472,-0.081445421441649901
0.278013409244684540,0.025336366020932997,-0.081923302034069251
0.279854557650278502,0.025656566428727955,-0.082399979675282065
0.281695706055872463,0.025978462249732187,-0.082875449327904138
0.283536854461466370,0.026302045943548021,-0.083349706003872079
0.285378002867060332,0.026627309942153940,-0.083822744764513110
0.287219151272654238,0.026954246650267716,-0.084294560720611436
0.289060299678248200,0.027282848445708489,-0.084765149032470857
0.290901448083842162,0.027613107679760440,-0.085234504909973530
0.292742596489436069,0.027945016677535524,-0.085702623612635254
0.294583744895030031,0.028278567738337514,-0.086169500449657266
0.296424893300623937,0.028613753136026255,-0.086635130779973590
0.298266041706217899,0.028950565119382127,-0.087099510012295892
0.300107190111811861,0.029288995912470191,-0.087562633605153817
0.301948338517405712,0.029629037715005670,-0.088024497066931967
0.303789486922999674,0.029970682702718982,-0.088485095955903703
0.305630635328593636,0.030313923027720902,-0.088944425880260469
0.307471783734187543,0.030658750818868111,-0.089402482498138508
0.309312932139781505,0.031005158182128508,-0.089859261517641578
0.311154080545375467,0.031353137200947970,-0.090314758696859759
0.312995228950969373,0.031702679936614769,-0.090768969843885716
0.314836377356563335,0.032053778428626174,-0.091221890816826370
0.316677525762157297,0.032406424695054621,-0.091673517523811879
0.318518674167751148,0.032760610732912573,-0.092123845923000824
0.320359822573345110,0.033116328518519422,-0.092572872022581840
0.322200970978939072,0.033473570007866812,-0.093020591880772219
0.324042119384532978,0.033832327136984058,-0.093467001605812519
0.325883267790126940,0.034192591822303990,-0.093912097355958277
0.327724416195720902,0.034554355961028786,-0.094355875339468112
0.329565564601314809,0.034917611431494487,-0.094798331814588507
0.331406713006908771,0.035282350093537002,-0.095239463089535181
0.333247861412502677,0.035648563788855926,-0.095679265522471413
0.335089009818096639,0.036016244341379886,-0.096117735521482547
0.336930158223690601,0.036385383557631407,-0.096554869544547700
0.338771306629284452,0.036755973227089483,-0.096990664099508087
0.340612455034878414,0.037128005122554660,-0.097425115744031954
0.342453603440472376,0.037501471000512342,-0.097858221085576416
0.344294751846066283,0.037876362601495024,-0.098289976781345934
0.346135900251660245,0.038252671650445561,-0.098720379538248054
0.347977048657254207,0.038630389857079853,-0.099149426112845357
0.349818197062848113,0.039009508916247396,-0.099577113311304755
0.351659345468442075,0.039390020508294002,-0.100003437989343538
0.353500493874036037,0.039771916299421464,-0.100428397052172269
0.355341642279629888,0.040155187942048920,-0.100851987454434633
0.357182790685223850,0.040539827075171758,-0.101274206200144393
0.359023939090817812,0.040925825324721533,-0.101695050342618887
0.360865087496411718,0.041313174303924359,-0.102114516984410278
0.362706235902005680,0.041701865613658649,-0.102532603277233014
0.364547384307599642,0.042091890842812882,-0.102949306421888903
0.366388532713193549,0.042483241568642242,-0.103364623668189118
0.368229681118787511,0.042875909357124972,-0.103778552314873110
0.370070829524381473,0.043269885763316883,-0.104191089709524801
0.371911977929975379,0.043665162331707051,-0.104602233248485998
0.373753126335569286,0.044061730596570786,-0.105011980376767039
0.375594274741163248,0.044459582082323312,-0.105420328587954013
0.377435423146757154,0.044858708303872362,-0.105827275424114187
0.379276571552351116,0.045259100766968555,-0.106232818475697988
0.381117719957945078,0.045660750968557012,-0.106636955381438303
0.382958868363538985,0.046063650397127322,-0.107039683828247426
0.384800016769132947,0.046467790533061458,-0.107441001551111137
0.386641165174726908,0.046873162848982741,-0.107840906332979852
0.388482313580320815,0.047279758810102684,-0.108239396004657595
0.390323461985914777,0.047687569874567043,-0.108636468444688383
0.392164610391508739,0.048096587493800982,-0.109032121579239388
0.394005758797102590,0.048506803112853603,-0.109426353381982477
0.395846907202696552,0.048918208170740801,-0.109819161873972448
0.397688055608290514,0.049330794100787480,-0.110210545123523282
0.399529204013884420,0.049744552330969138,-0.110600501246081687
0.401370352419478382,0.050159474284251264,-0.110989028404098175
0.403211500825072344,0.050575551378929329,-0.111376124806895918
0.405052649230666251,0.050992775028965050,-0.111761788710537199
0.406893797636260213,0.051411136644325325,-0.112146018417687329
0.408734946041854175,0.051830627631315636,-0.112528812277476090
0.410576094447448026,0.052251239392916572,-0.112910168685357568
0.412417242853041988,0.052672963329115266,-0.113290086082967228
0.414258391258635950,0.053095790837239067,-0.113668562957976116
0.416099539664229856,0.053519713312285194,-0.114045597843944385
0.417940688069823818,0.053944722147251468,-0.114421189320171229
0.419781836475417780,0.054370808733463623,-0.114795336011543181
0.421622984881011686,0.054797964460903403,-0.115168036588380582
0.423464133286605648,0.055226180718533920,-0.115539289766281139
0.425305281692199555,0.055655448894623885,-0.115909094305962385
0.427146430097793517,0.056085760377071810,-0.116277449013101331
0.428987578503387423,0.056517106553726958,-0.116644352738172211
0.430828726908981330,0.056949478812710327,-0.117009804376282736
0.432669875314575292,0.057382868542733875,-0.117373802867007659
0.434511023720169254,0.057817267133418088,-0.117736347194221061
0.436352172125763160,0.058252665975608318,-0.118097436385926083
0.438193320531357122,0.058689056461690273,-0.118457069514083496
0.440034468936951084,0.059126429985902958,-0.118815245694437591
0.441875617342544991,0.059564777944651044,-0.119171964086341078
0.443716765748138953,0.060004091736815646,-0.119527223892577486
0.445557914153732915,0.060444362764063099,-0.119881024359182256
0.447399062559326766,0.060885582431153010,-0.120233364775261795
0.449240210964920728,0.061327742146244410,-0.120584244472811117
0.451081359370514690,0.061770833321200105,-0.120933662826529356
0.452922507776108596,0.062214847371890113,-0.121281619253634135
0.454763656181702558,0.062659775718493155,-0.121628113213673894
0.456604804587296520,0.063105609785796588,-0.121973144208338727
0.458445952992890426,0.063552341003494800,-0.122316711781269946
0.460287101398484388,0.063999960806486483,-0.122658815517867448
0.462128249804078350,0.064448460635169541,-0.122999455045096198
0.463969398209672201,0.064897831935734326,-0.123338630031290766
0.465810546615266163,0.065348066160457213,-0.123676340185959091
0.467651695020860125,0.065799154767988990,-0.124012585259583655
0.469492843426454032,0.066251089223644977,-0.124347365043422184
0.471333991832047994,0.066703860999691805,-0.124680679369306810
0.473175140237641956,0.067157461575632835,-0.125012528109441634
0.475016288643235862,0.067611882438491519,-0.125342911176199057
0.476857437048829824,0.068067115083094223,-0.125671828521914830
0.478698585454423786,0.068523151012350070,-0.125999280138682057
0.480539733860017693,0.068979981737529519,-0.126325266058143287
0.482380882265611655,0.069437598778541484,-0.126649786351282323
0.484222030671205561,0.069895993664208775,-0.126972841128213970
0.486063179076799468,0.070355157932540893,-0.127294430537973235
0.487904327482393430,0.070815083131006706,-0.127614554768303023
0.489745475887987392,0.071275760816803077,-0.127933214045440974
0.491586624293581298,0.071737182557124218,-0.128250408633904717
0.493427772699175260,0.072199339929427592,-0.128566138836277183
0.495268921104769222,0.072662224521698321,-0.128880404992989306
0.497110069510363128,0.073125827932712273,-0.129193207482103056
0.498951217915957090,0.073590141772297085,-0.129504546719093061
0.500792366321550997,0.074055157661591264,-0.129814423156626835
0.502633514727144903,0.074520867233301244,-0.130122837284344539
0.504474663132738921,0.074987262131957597,-0.130429789628638271
0.506315811538332827,0.075454334014167887,-0.130735280752429212
0.508156959943926734,0.075922074548869317,-0.131039311254945140
0.509998108349520751,0.076390475417578332,-0.131341881771496666
0.511839256755114658,0.076859528314638700,-0.131642992973252437
0.513680405160708564,0.077329224947467842,-0.131942645567013878
0.515521553566302471,0.077799557036801276,-0.132240840294989420
0.517362701971896488,0.078270516316935393,-0.132537577934567136
0.519203850377490395,0.078742094535967477,-0.132832859298087719
0.521044998783084301,0.079214283456035164,-0.133126685232615866
0.522886147188678208,0.079687074853552961,-0.133419056619711929
0.524727295594272225,0.080160460519446836,-0.133709974375202240
0.526568443999866131,0.080634432259388183,-0.133999439448948848
0.528409592405460038,0.081108981894023949,-0.134287452824619236
0.530250740811053944,0.081584101259206718,-0.134574015519455165
0.532091889216647962,0.082059782206221565,-0.134859128584040533
0.533933037622241868,0.082536016602011167,-0.135142793102069725
0.535774186027835775,0.083012796329399841,-0.135425010190114464
0.537615334433429792,0.083490113287315412,-0.135705780997391223
0.539456482839023699,0.083967959391006958,-0.135985106705527020
0.541297631244617605,0.084446326572264710,-0.136262988528325718
0.543138779650211623,0.084925206779634263,-0.136539427711534017
0.544979928055805529,0.085404591978631039,-0.136814425532606060
0.546821076461399436,0.085884474151951745,-0.137087983300469035
0.548662224866993342,0.086364845299684120,-0.137360102355287117
0.550503373272587249,0.086845697439515507,-0.137630784068226458
0.552344521678181266,0.087327022606937824,-0.137900029841218713
0.554185670083775173,0.087808812855452140,-0.138167841106725003
0.556026818489369079,0.088291060256770665,-0.138434219327499691
0.557867966894963097,0.088773756901016715,-0.138699165996353346
0.559709115300557003,0.089256894896922442,-0.138962682635916213
0.561550263706150909,0.089740466372025748,-0.139224770798401204
0.563391412111744927,0.090224463472863684,-0.139485432065366566
0.565232560517338833,0.090708878365164641,-0.139744668047478787
0.567073708922932740,0.091193703234039247,-0.140002480384275041
0.568914857328526646,0.091678930284167626,-0.140258870743926067
0.570756005734120664,0.092164551739986736,-0.140513840822998282
