# omega (a.u.), Re alpha(w), Im alpha(w)
0.000000000000000000e+00,0.000000000000000000e+00,0.000000000000000000e+00
1.841148405593937476e-03,4.143287071580563160e-06,-2.048185224457886415e-03
3.682296811187874951e-03,1.657303897330434254e-05,-4.096336396061373702e-03
5.523445216781813077e-03,3.728892776786157920e-05,-6.144419463654522684e-03
7.364593622375749903e-03,6.629040691771679759e-05,-8.192400379478128464e-03
9.205742027969688462e-03,1.035767113096982617e-04,-1.024024510086766863e-02
1.104689043356362615e-02,1.491468573048741568e-04,-1.228791959195072586e-02
1.288803883915756211e-02,2.029996427896498077e-04,-1.433538982534373132e-02
1.472918724475149981e-02,2.651336472484895298e-04,-1.638262178384786508e-02
1.657033565034543576e-02,3.355472318399512128e-04,-1.842958146214389303e-02
1.841148405593937692e-02,4.142385394946963536e-04,-2.047623486848585209e-02
2.025263246153331115e-02,5.012054950175078970e-04,-2.252254802639330755e-02
2.209378086712725231e-02,5.964458052079720483e-04,-2.456848697634216386e-02
2.393492927272118653e-02,6.999569589886554723e-04,-2.661401777745365377e-02
2.577607767831512423e-02,8.117362275505490095e-04,-2.865910650918155472e-02
2.761722608390906192e-02,9.317806645049646168e-04,-3.070371927299730269e-02
2.945837448950299961e-02,1.060087106054439241e-03,-3.274782219407287170e-02
3.129952289509693730e-02,1.196652171170790088e-03,-3.479138142296130803e-02
3.314067130069087153e-02,1.341472261786075043e-03,-3.683436313727468658e-02
3.498181970628481269e-02,1.494543563000817060e-03,-3.887673354335943743e-02
3.682296811187875385e-02,1.655862043296415197e-03,-4.091845887796855680e-02
3.866411651747268807e-02,1.825423454767607749e-03,-4.295950540993103556e-02
4.050526492306662230e-02,2.003223333360349030e-03,-4.499983944181785295e-02
4.234641332866055652e-02,2.189256999129031347e-03,-4.703942731160475760e-02
4.418756173425450462e-02,2.383519556498606053e-03,-4.907823539433135013e-02
4.602871013984843884e-02,2.586005894544647719e-03,-5.111623010375644649e-02
4.786985854544237307e-02,2.796710687281636978e-03,-5.315337789400977758e-02
4.971100695103631423e-02,3.015628393966394028e-03,-5.518964526123933123e-02
5.155215535663024845e-02,3.242753259410070810e-03,-5.722499874525473207e-02
5.339330376222418961e-02,3.478079314305665068e-03,-5.925940493116610419e-02
5.523445216781812384e-02,3.721600375566506969e-03,-6.129283045101844435e-02
5.707560057341206500e-02,3.973310046675403856e-03,-6.332524198542148486e-02
5.891674897900599922e-02,4.233201718045621897e-03,-6.535660626517418581e-02
6.075789738459993344e-02,4.501268567396889998e-03,-6.738689007288499455e-02
6.259904579019387461e-02,4.777503560139573398e-03,-6.941606024458624180e-02
6.444019419578780883e-02,5.061899449772476987e-03,-7.144408367134347237e-02
6.628134260138174305e-02,5.354448778292478575e-03,-7.347092730085942602e-02
6.812249100697569115e-02,5.655143876615353719e-03,-7.549655813907225899e-02
6.996363941256962538e-02,5.963976865008432243e-03,-7.752094325174782585e-02
7.180478781816355960e-02,6.280939653535310210e-03,-7.954404976606632705e-02
7.364593622375750770e-02,6.606023942511521016e-03,-8.156584487220260027e-02
7.548708462935142804e-02,6.939221222972810112e-03,-8.358629582490029186e-02
7.732823303494537615e-02,7.280522777152408608e-03,-8.560536994503960273e-02
7.916938144053932425e-02,7.629919678974422456e-03,-8.762303462119844233e-02
8.101052984613324459e-02,7.987402794553977517e-03,-8.963925731120699070e-02
8.285167825172719269e-02,8.352962782710979597e-03,-9.165400554369521058e-02
8.469282665732111304e-02,8.726590095494514421e-03,-9.366724691963368432e-02
8.653397506291506114e-02,9.108274978719983067e-03,-9.567894911386706780e-02
8.837512346850900924e-02,9.498007472515640481e-03,-9.768907987664018910e-02
9.021627187410292958e-02,9.895777411881183372e-03,-9.969760703511706956e-02
9.205742027969687769e-02,1.030157442725660767e-02,-1.017044984948921593e-01
9.389856868529081191e-02,1.071538794510434704e-02,-1.037097222414936765e-01
9.573971709088474613e-02,1.113720718849852895e-02,-1.057132463418797574e-01
9.758086549647869423e-02,1.156702117773030815e-02,-1.077150389459255869e-01
9.942201390207262846e-02,1.200481873092014602e-02,-1.097150682879035610e-01
1.012631623076665627e-01,1.245058846464127018e-02,-1.117133026879544161e-01
1.031043107132604969e-01,1.290431879455551829e-02,-1.137097105535502528e-01
1.049454591188544450e-01,1.336599793605961622e-02,-1.157042603809489284e-01
1.067866075244483792e-01,1.383561390494091915e-02,-1.176969207566399139e-01
1.086277559300423134e-01,1.431315451804514825e-02,-1.196876603587814641e-01
1.104689043356362477e-01,1.479860739395216264e-02,-1.216764479586286418e-01
1.123100527412301819e-01,1.529195995366620063e-02,-1.236632524219524049e-01
1.141512011468241300e-01,1.579319942131399493e-02,-1.256480427104496311e-01
1.159923495524180503e-01,1.630231282485103753e-02,-1.276307878831436371e-01
1.178334979580119984e-01,1.681928699678392897e-02,-1.296114570977758840e-01
1.196746463636059465e-01,1.734410857489759178e-02,-1.315900196121870536e-01
1.215157947691998669e-01,1.787676400299453155e-02,-1.335664447856897419e-01
1.233569431747938150e-01,1.841723953164556629e-02,-1.355407020804305085e-01
1.251980915803877492e-01,1.896552121894655787e-02,-1.375127610627424612e-01
1.270392399859816834e-01,1.952159493129077689e-02,-1.394825914044877102e-01
1.288803883915756177e-01,2.008544634414581240e-02,-1.414501628843897185e-01
1.307215367971695519e-01,2.065706094284271155e-02,-1.434154453893554670e-01
1.325626852027634861e-01,2.123642402337522564e-02,-1.453784089157875159e-01
1.344038336083574481e-01,2.182352069320707758e-02,-1.473390235708850193e-01
1.362449820139513823e-01,2.241833587208981807e-02,-1.492972595739348596e-01
1.380861304195453165e-01,2.302085429289021587e-02,-1.512530872575919560e-01
1.399272788251392508e-01,2.363106050242625572e-02,-1.532064770691485833e-01
1.417684272307331850e-01,2.424893886231259052e-02,-1.551573995717931143e-01
1.436095756363271192e-01,2.487447354981663777e-02,-1.571058254458575776e-01
1.454507240419210812e-01,2.550764855872167391e-02,-1.590517254900546129e-01
1.472918724475150154e-01,2.614844770020016348e-02,-1.609950706227024908e-01
1.491330208531089496e-01,2.679685460369498479e-02,-1.629358318829399188e-01
1.509741692587028561e-01,2.745285271781299982e-02,-1.648739804319287183e-01
1.528153176642968181e-01,2.811642531122283961e-02,-1.668094875540454547e-01
1.546564660698907523e-01,2.878755547356262948e-02,-1.687423246580612157e-01
1.564976144754846865e-01,2.946622611635885125e-02,-1.706724632783104545e-01
1.583387628810786485e-01,3.015241997395216519e-02,-1.725998750758474809e-01
1.601799112866725550e-01,3.084611960442979264e-02,-1.745245318395913237e-01
1.620210596922664892e-01,3.154730739056905986e-02,-1.764464054874592680e-01
1.638622080978604512e-01,3.225596554078948713e-02,-1.783654680674877091e-01
1.657033565034543854e-01,3.297207609010944368e-02,-1.802816917589415147e-01
1.675445049090483196e-01,3.369562090111461600e-02,-1.821950488734111195e-01
1.693856533146422261e-01,3.442658166493296062e-02,-1.841055118558974357e-01
1.712268017202361881e-01,3.516493990221905563e-02,-1.860130532858847441e-01
1.730679501258301223e-01,3.591067696414179666e-02,-1.879176458784010129e-01
1.749090985314240565e-01,3.666377403338632462e-02,-1.898192624850658372e-01
1.767502469370180185e-01,3.742421212515903428e-02,-1.917178760951264160e-01
1.785913953426119249e-01,3.819197208820149236e-02,-1.936134598364803172e-01
1.804325437482058592e-01,3.896703460581203010e-02,-1.955059869766862246e-01
1.822736921537998211e-01,3.974938019687397628e-02,-1.973954309239618898e-01
1.841148405593937554e-01,4.053898921689361862e-02,-1.992817652281690943e-01
1.859559889649876896e-01,4.133584185904012887e-02,-2.011649635817865100e-01
1.877971373705816238e-01,4.213991815519976120e-02,-2.030449998208692375e-01
1.896382857761755580e-01,4.295119797703039755e-02,-2.049218479259953540e-01
1.914794341817694923e-01,4.376966103702690375e-02,-2.067954820232001945e-01
1.933205825873634542e-01,4.459528688959214088e-02,-2.086658763848971698e-01
1.951617309929573885e-01,4.542805493211476975e-02,-2.105330054307856524e-01
1.970028793985512949e-01,4.626794440605389025e-02,-2.123968437287460098e-01
1.988440278041452569e-01,4.711493439803004363e-02,-2.142573659957211218e-01
2.006851762097391911e-01,4.796900384092225161e-02,-2.161145470985850470e-01
2.025263246153331254e-01,4.883013151497164056e-02,-2.179683620549987821e-01
2.043674730209270873e-01,4.969829604889243468e-02,-2.198187860342522282e-01
2.062086214265209938e-01,5.057347592098622446e-02,-2.216657943580926382e-01
2.080497698321149280e-01,5.145564946026654624e-02,-2.235093625015416030e-01
2.098909182377088900e-01,5.234479484758450263e-02,-2.253494660936956051e-01
2.117320666433028242e-01,5.324089011676449990e-02,-2.271860809185166086e-01
2.135732150488967585e-01,5.414391315574286490e-02,-2.290191829156062175e-01
2.154143634544906649e-01,5.505384170771333852e-02,-2.308487481809687603e-01
2.172555118600846269e-01,5.597065337227883491e-02,-2.326747529677594684e-01
2.190966602656785611e-01,5.689432560660549754e-02,-2.344971736870195833e-01
2.209378086712724953e-01,5.782483572658701082e-02,-2.363159869083985842e-01
2.227789570768664573e-01,5.876216090800929354e-02,-2.381311693608615665e-01
2.246201054824603638e-01,5.970627818772341472e-02,-2.399426979333844911e-01
2.264612538880542980e-01,6.065716446482252722e-02,-2.417505496756347239e-01
2.283024022936482600e-01,6.161479650182369316e-02,-2.435547017986390006e-01
2.301435506992421942e-01,6.257915092585430994e-02,-2.453551316754368217e-01
2.319846991048361007e-01,6.355020422984447581e-02,-2.471518168417212169e-01
2.338258475104300627e-01,6.452793277372215197e-02,-2.489447349964651335e-01
2.356669959160239969e-01,6.551231278561431282e-02,-2.507338640025342236e-01
2.375081443216179311e-01,6.650332036305114936e-02,-2.525191818872870031e-01
2.393492927272118931e-01,6.750093147417741968e-02,-2.543006668431598838e-01
2.411904411328058273e-01,6.850512195896395207e-02,-2.560782972282399372e-01
2.430315895383997338e-01,6.951586753042593436e-02,-2.578520515668228374e-01
2.448727379439936958e-01,7.053314377584452011e-02,-2.596219085499583135e-01
2.467138863495876300e-01,7.155692615799430500e-02,-2.613878470359810580e-01
2.485550347551815642e-01,7.258719001636912416e-02,-2.631498460510282578e-01
2.503961831607754984e-01,7.362391056841813275e-02,-2.649078847895442457e-01
2.522373315663694604e-01,7.466706291078205326e-02,-2.666619426147698868e-01
2.540784799719633669e-01,7.571662202053217050e-02,-2.684119990592203076e-01
2.559196283775573288e-01,7.677256275641450300e-02,-2.701580338251473590e-01
2.577607767831512353e-01,7.783485986009698598e-02,-2.719000267849896457e-01
2.596019251887451973e-01,7.890348795742016530e-02,-2.736379579818085106e-01
2.614430735943391038e-01,7.997842155964889066e-02,-2.753718076297102524e-01
2.632842219999330657e-01,8.105963506472935176e-02,-2.771015561142553540e-01
2.651253704055269722e-01,8.214710275854739119e-02,-2.788271839928537221e-01
2.669665188111209342e-01,8.324079881619224353e-02,-2.805486719951466035e-01
2.688076672167148962e-01,8.434069730321804015e-02,-2.822660010233755123e-01
2.706488156223088026e-01,8.544677217691364068e-02,-2.839791521527361140e-01
2.724899640279027646e-01,8.655899728757018852e-02,-2.856881066317208950e-01
2.743311124334966711e-01,8.767734637975463374e-02,-2.873928458824469012e-01
2.761722608390906331e-01,8.880179309358179895e-02,-2.890933515009707078e-01
2.780134092446845395e-01,8.993231096599330066e-02,-2.907896052575893453e-01
2.798545576502785015e-01,9.106887343203380614e-02,-2.924815890971293464e-01
2.816957060558724635e-01,9.221145382613177288e-02,-2.941692851392204711e-01
2.835368544614663699e-01,9.336002538338381007e-02,-2.958526756785586076e-01
2.853780028670603319e-01,9.451456124083452981e-02,-2.975317431851532413e-01
2.872191512726542384e-01,9.567503443876664015e-02,-2.992064703045630991e-01
2.890602996782482004e-01,9.684141792198368293e-02,-3.008768398581185832e-01
2.909014480838421624e-01,9.801368454110404027e-02,-3.025428348431299375e-01
2.927425964894360688e-01,9.919180705384555985e-02,-3.042044384330840345e-01
2.945837448950300308e-01,1.003757581263196308e-01,-3.058616339778275628e-01
2.964248933006239373e-01,1.015655103343240384e-01,-3.075144050037358356e-01
2.982660417062178992e-01,1.027610361646346809e-01,-3.091627352138716089e-01
3.001071901118118612e-01,1.039623080163009639e-01,-3.108066084881278557e-01
3.019483385174057122e-01,1.051692982019412775e-01,-3.124460088833601046e-01
3.037894869229996742e-01,1.063819789490389883e-01,-3.140809206335048454e-01
3.056306353285936361e-01,1.076003224012389708e-01,-3.157113281496857771e-01
3.074717837341875426e-01,1.088243006196441265e-01,-3.173372160203064563e-01
3.093129321397815046e-01,1.100538855841140945e-01,-3.189585690111320648e-01
3.111540805453754666e-01,1.112890491945644211e-01,-3.205753720653560790e-01
3.129952289509693730e-01,1.125297632722630503e-01,-3.221876103036578343e-01
3.148363773565633350e-01,1.137759995611283270e-01,-3.237952690242441589e-01
3.166775257621572970e-01,1.150277297290315387e-01,-3.253983337028809042e-01
3.185186741677511479e-01,1.162849253690903945e-01,-3.269967899929113742e-01
3.203598225733451099e-01,1.175475580009723159e-01,-3.285906237252629314e-01
3.222009709789390719e-01,1.188155990721898314e-01,-3.301798209084407243e-01
3.240421193845329784e-01,1.200890199593992735e-01,-3.317643677285094239e-01
3.258832677901269403e-01,1.213677919696980190e-01,-3.333442505490639141e-01
3.277244161957209023e-01,1.226518863419242961e-01,-3.349194559111862146e-01
3.295655646013148088e-01,1.239412742479497204e-01,-3.364899705333924684e-01
3.314067130069087708e-01,1.252359267939785747e-01,-3.380557813115661614e-01
3.332478614125026772e-01,1.265358150218411082e-01,-3.396168753188811840e-01
3.350890098180966392e-01,1.278409099102879587e-01,-3.411732398057120141e-01
3.369301582236906012e-01,1.291511823762857003e-01,-3.427248621995324651e-01
3.387713066292844521e-01,1.304666032763056593e-01,-3.442717301048036638e-01
3.406124550348784141e-01,1.317871434076175463e-01,-3.458138313028495392e-01
3.424536034404723761e-01,1.331127735095794518e-01,-3.473511537517209868e-01
3.442947518460662826e-01,1.344434642649253164e-01,-3.488836855860498742e-01
3.461359002516602446e-01,1.357791863010523736e-01,-3.504114151168894464e-01
3.479770486572542065e-01,1.371199101913087859e-01,-3.519343308315463492e-01
3.498181970628481130e-01,1.384656064562753697e-01,-3.534524213933990522e-01
3.516593454684420750e-01,1.398162455650496239e-01,-3.549656756417071679e-01
3.535004938740360370e-01,1.411717979365267328e-01,-3.564740825914076150e-01
3.553416422796298879e-01,1.425322339406771832e-01,-3.579776314329026210e-01
3.571827906852238499e-01,1.438975238998258521e-01,-3.594763115318350133e-01
3.590239390908178119e-01,1.452676380899256547e-01,-3.609701124288525187e-01
3.608650874964117183e-01,1.466425467418311090e-01,-3.624590238393633479e-01
3.627062359020056803e-01,1.480222200425690693e-01,-3.639430356532787902e-01
3.645473843075996423e-01,1.494066281366068782e-01,-3.654221379347482035e-01
3.663885327131935488e-01,1.507957411271191595e-01,-3.668963209218802923e-01
3.682296811187875107e-01,1.521895290772529719e-01,-3.683655750264570594e-01
3.700708295243814727e-01,1.535879620113858035e-01,-3.698298908336357660e-01
3.719119779299753792e-01,1.549910099163875343e-01,-3.712892591016411781e-01
3.737531263355692857e-01,1.563986427428751547e-01,-3.727436707614484313e-01
3.755942747411632476e-01,1.578108304064662071e-01,-3.741931169164546822e-01
3.774354231467571541e-01,1.592275427890299799e-01,-3.756375888421424336e-01
3.792765715523511161e-01,1.606487497399343711e-01,-3.770770779857314237e-01
3.811177199579450781e-01,1.620744210772905869e-01,-3.785115759658223555e-01
3.829588683635389845e-01,1.635045265891965083e-01,-3.799410745720300797e-01
3.848000167691329465e-01,1.649390360349725637e-01,-3.813655657646076724e-01
3.866411651747269085e-01,1.663779191463988505e-01,-3.827850416740607997e-01
3.884823135803208149e-01,1.678211456289476211e-01,-3.841994946007533662e-01
3.903234619859147769e-01,1.692686851630103018e-01,-3.856089170145032274e-01
3.921646103915087389e-01,1.707205074051237337e-01,-3.870133015541691313e-01
3.940057587971025899e-01,1.721765819891926119e-01,-3.884126410272286667e-01
3.958469072026965518e-01,1.736368785277064286e-01,-3.898069284093472198e-01
3.976880556082905138e-01,1.751013666129551116e-01,-3.911961568439382142e-01
3.995292040138844203e-01,1.765700158182394452e-01,-3.925803196417144147e-01
4.013703524194783823e-01,1.780427956990778826e-01,-3.939594102802297937e-01
4.032115008250723442e-01,1.795196757944117483e-01,-3.953334224034152911e-01
4.050526492306662507e-01,1.810006256278008097e-01,-3.967023498211030286e-01
4.068937976362602127e-01,1.824856147086234837e-01,-3.980661865085445839e-01
4.087349460418541747e-01,1.839746125332633597e-01,-3.994249266059190506e-01
4.105760944474480256e-01,1.854675885863006912e-01,-4.007785644178348816e-01
4.124172428530419876e-01,1.869645123416920907e-01,-4.021270944128227387e-01
4.142583912586359496e-01,1.884653532639519180e-01,-4.034705112228189061e-01
4.160995396642298561e-01,1.899700808093238713e-01,-4.048088096426440963e-01
4.179406880698238180e-01,1.914786644269547422e-01,-4.061419846294713754e-01
4.197818364754177800e-01,1.929910735600567362e-01,-4.074700313022878162e-01
4.216229848810116865e-01,1.945072776470705145e-01,-4.087929449413493233e-01
4.234641332866056485e-01,1.960272461228221019e-01,-4.101107209876252990e-01
4.253052816921995549e-01,1.975509484196721066e-01,-4.114233550422396468e-01
4.271464300977935169e-01,1.990783539686670489e-01,-4.127308428659013373e-01
4.289875785033874234e-01,2.006094322006793107e-01,-4.140331803783289244e-01
4.308287269089813298e-01,2.021441525475450030e-01,-4.153303636576686775e-01
4.326698753145752918e-01,2.036824844431979475e-01,-4.166223889399045532e-01
4.345110237201692538e-01,2.052243973247977471e-01,-4.179092526182620615e-01
4.363521721257631603e-01,2.067698606338508327e-01,-4.191909512426049145e-01
4.381933205313571222e-01,2.083188438173308454e-01,-4.204674815188252923e-01
4.400344689369510842e-01,2.098713163287907468e-01,-4.217388403082273363e-01
4.418756173425449907e-01,2.114272476294704051e-01,-4.230050246269039249e-01
4.437167657481389527e-01,2.129866071893989632e-01,-4.242660316451072333e-01
4.455579141537329146e-01,2.145493644884932938e-01,-4.255218586866145736e-01
4.473990625593267656e-01,2.161154890176485988e-01,-4.267725032280840214e-01
4.492402109649207276e-01,2.176849502798274549e-01,-4.280179628984087659e-01
4.510813593705146896e-01,2.192577177911382014e-01,-4.292582354780617448e-01
4.529225077761085960e-01,2.208337610819139096e-01,-4.304933188984366166e-01
4.547636561817025580e-01,2.224130496977803628e-01,-4.317232112411817924e-01
4.566048045872965200e-01,2.239955532007231742e-01,-4.329479107375290292e-01
4.584459529928904264e-01,2.255812411701446363e-01,-4.341674157676171930e-01
4.602871013984843884e-01,2.271700832039201534e-01,-4.353817248598087497e-01
4.621282498040783504e-01,2.287620489194451545e-01,-4.365908366900030368e-01
4.639693982096722014e-01,2.303571079546755940e-01,-4.377947500809423742e-01
4.658105466152661633e-01,2.319552299691686748e-01,-4.389934640015145106e-01
4.676516950208601253e-01,2.335563846451094994e-01,-4.401869775660487427e-01
4.694928434264540318e-01,2.351605416883383037e-01,-4.413752900336070373e-01
4.713339918320479938e-01,2.367676708293692811e-01,-4.425584008072717679e-01
4.731751402376419557e-01,2.383777418244035495e-01,-4.437363094334266789e-01
4.750162886432358622e-01,2.399907244563361242e-01,-4.449090156010347963e-01
4.768574370488298242e-01,2.416065885357568388e-01,-4.460765191409103991e-01
4.786985854544237862e-01,2.432253039019467433e-01,-4.472388200249874379e-01
4.805397338600176926e-01,2.448468404238659524e-01,-4.483959183655821801e-01
