# omega (a.u.), Re alpha(w), Im alpha(w)
0.000000000000000000,0.000000000000000000,0.000000000000000000
0.001841148405593937,-0.000005007768361642,-0.000208658005440377
0.003682296811187875,-0.000020029045080329,-0.000417469089679011
0.005523445216781813,-0.000045056724003682,-0.000626585031609117
0.007364593622375750,-0.000080080069398786,-0.000836156194772264
0.009205742027969688,-0.000125085153403425,-0.001046331530388774
0.011046890433563626,-0.000180054502474837,-0.001257258580422025
0.012888038839157562,-0.000244969442769130,-0.001469083480676411
0.014729187244751500,-0.000319807371231472,-0.001681950963928691
0.016570335650345436,-0.000404542359547722,-0.001896004363092514
0.018411484055939377,-0.000499001844875796,-0.002111385614415852
0.020252632461533311,-0.000603449278437933,-0.002328235260711096
0.022093780867127252,-0.000717705242276244,-0.002546692454617578
0.023934929272721187,-0.000841736392425261,-0.002766894961896257
0.025776077678315124,-0.000975508022249353,-0.002988979164756338
0.027617226083909062,-0.001118986800422341,-0.003213080065213557
0.029458374489503000,-0.001272121775557501,-0.003439331288479898
0.031299522895096937,-0.001434886043713535,-0.003667865086384496
0.033140671300690872,-0.001607226485500883,-0.003898812340825451
0.034981819706284813,-0.001789101446277125,-0.004132302567252345
0.036822968111878754,-0.001980458735741067,-0.004368463918179172
0.038664116517472688,-0.002181416810575430,-0.004607423186727459
0.040505264923066622,-0.002391614138808463,-0.004849305810199317
0.042346413328660557,-0.002611159617396108,-0.005094235873680169
0.044187561734254505,-0.002839985956786391,-0.005342336113670923
0.046028710139848439,-0.003078049170579641,-0.005593727921749300
0.047869858545442373,-0.003325292184192591,-0.005848531348260120
0.049711006951036314,-0.003581660176094737,-0.006106865106034256
0.051552155356630248,-0.003847095035744840,-0.006368846574136010
0.053393303762224190,-0.004121528647008160,-0.006634591801638676
0.055234452167818124,-0.004404919656208181,-0.006904215511428018
0.057075600573412065,-0.004697208415265385,-0.007177831104033449
0.058916748979005999,-0.004998315238645518,-0.007455550661486592
0.060757897384599933,-0.005308175718656846,-0.007737484951207060
0.062599045790193875,-0.005626743128429401,-0.008023743429915114
0.064440194195787809,-0.005953937968934267,-0.008314434247571010
0.066281342601381743,-0.006289563532175178,-0.008609664251340765
0.068122491006975691,-0.006633801371672677,-0.008909538989588109
0.069963639412569625,-0.006986484817065588,-0.009214162715892272
0.071804787818163560,-0.007347531303390098,-0.009523638393091536
0.073645936223757508,-0.007716915906185728,-0.009838067697352119
0.075487084629351428,-0.008094430781515036,-0.010157551022262252
0.077328233034945376,-0.008480175873363737,-0.010482187482951162
0.079169381440539324,-0.008873921022276873,-0.010812074920232699
0.081010529846133245,-0.009275733599979569,-0.011147309904773332
0.082851678251727193,-0.009685442381761467,-0.011487987741284410
0.084692826657321113,-0.010103001899402378,-0.011834202472738154
0.086533975062915061,-0.010528333453372623,-0.012186046884607440
0.088375123468509009,-0.010961358441766164,-0.012543612509128882
0.090216271874102930,-0.011402018896251004,-0.012906989629589128
0.092057420279696878,-0.011850194767746371,-0.013276267284634010
0.093898568685290812,-0.012305870758633614,-0.013651533272600314
0.095739717090884746,-0.012768908098317112,-0.014032874155869990
0.097580865496478694,-0.013239256090547052,-0.014420375265246472
0.099422013902072628,-0.013716771332565648,-0.014814120704352863
0.101263162307666563,-0.014201477164182548,-0.015214193354051803
0.103104310713260497,-0.014693237977183551,-0.015620674876886708
0.104945459118854445,-0.015192045881066540,-0.016033645721544088
0.106786607524448379,-0.015697675095048789,-0.016453185127336806
0.108627755930042313,-0.016210122133874405,-0.016879371128707989
0.110468904335636248,-0.016729274553332823,-0.017312280559755266
0.112310052741230182,-0.017255068582578598,-0.017751989058775151
0.114151201146824130,-0.017787299163994866,-0.018198571072827300
0.115992349552418050,-0.018326148040729854,-0.018652099862318475
0.117833497958011998,-0.018871344358090264,-0.019112647505605804
0.119674646363605947,-0.019422875280290026,-0.019580284903619179
0.121515794769199867,-0.019980571377513988,-0.020055081784502597
0.123356943174793815,-0.020544429789500777,-0.020537106708274147
0.125198091580387749,-0.021114287143904904,-0.021026427071504237
0.127039239985981683,-0.021690062229811433,-0.021523109112012186
0.128880388391575618,-0.022271672134946845,-0.022027217913580519
0.130721536797169552,-0.022859254360444590,-0.022538817410686987
0.132562685202763486,-0.023452365673714871,-0.023057970393254031
0.134403833608357448,-0.024051196022164240,-0.023584738511415262
0.136244982013951382,-0.024655433267831511,-0.024119182280298950
0.138086130419545317,-0.025264888939292331,-0.024661361084828179
0.139927278825139251,-0.025879987602335276,-0.025211333184537357
0.141768427230733185,-0.026500088246050851,-0.025769155718404848
0.143609575636327119,-0.027125401558795663,-0.026334884709701707
0.145450724041921081,-0.027755801270993117,-0.026908575070855853
0.147291872447515015,-0.028390879552319996,-0.027490280608331853
0.149133020853108950,-0.029031199892032081,-0.028080054027525791
0.150974169258702856,-0.029676059797428819,-0.028677946937675121
0.152815317664296818,-0.030325702840273323,-0.029284009856783248
0.154656466069890752,-0.030979703093087649,-0.029898292216558438
0.156497614475484687,-0.031638529459295350,-0.030520842367367115
0.158338762881078648,-0.032301542990661056,-0.031151707583200957
0.160179911286672555,-0.032968964500903315,-0.031790934066657874
0.162021059692266489,-0.033640336458286596,-0.032438566953936349
0.163862208097860451,-0.034315927145356695,-0.033094650319843079
0.165703356503454385,-0.034995760364597936,-0.033759227182813635
0.167544504909048320,-0.035679437904987496,-0.034432339509945849
0.169385653314642226,-0.036366744865738439,-0.035114028222045714
0.171226801720236188,-0.037057954363577353,-0.035804333198685701
0.173067950125830122,-0.037753021382011073,-0.036503293283274812
0.174909098531424056,-0.038451391313904203,-0.037210946288140888
0.176750246937018018,-0.039153093535277232,-0.037927328999624067
0.178591395342611925,-0.039858326993607966,-0.038652477183181815
0.180432543748205859,-0.040567043682961532,-0.039386425588505032
0.182273692153799821,-0.041278634512720451,-0.040129207954644849
0.184114840559393755,-0.041993263001960747,-0.040880857015150353
0.185955988964987690,-0.042711320469516027,-0.041641404503216337
0.187797137370581624,-0.043431851061591073,-0.042410881156841551
0.189638285776175558,-0.044155229280658591,-0.043189316723996611
0.191479434181769492,-0.044881227975841813,-0.043976739967801708
0.193320582587363454,-0.045610138038960871,-0.044773178671713848
0.195161730992957388,-0.046341453804043281,-0.045578659644723074
0.197002879398551295,-0.047075051765808298,-0.046393208726557923
0.198844027804145257,-0.047811123963728420,-0.047216850792899584
0.200685176209739191,-0.048549128600184135,-0.048049609760604378
0.202526324615333125,-0.049289708399826153,-0.048891508592934924
0.204367473020927087,-0.050031980618955849,-0.049742569304798971
0.206208621426520994,-0.050776408680330662,-0.050602812967996326
0.208049769832114928,-0.051522420364145394,-0.051472259716473269
0.209890918237708890,-0.052270366523886079,-0.052350928751584508
0.211732066643302824,-0.053020274695541027,-0.053238838347362018
0.213573215048896758,-0.053771318577592805,-0.054136005855791050
0.215414363454490665,-0.054523746603740625,-0.055042447712092803
0.217255511860084627,-0.055277788200054953,-0.055958179440013550
0.219096660265678561,-0.056033385396777248,-0.056883215657119825
0.220937808671272495,-0.056789919480425756,-0.057817570080100050
0.222778957076866457,-0.057547254109194576,-0.058761255530071624
0.224620105482460364,-0.058305887392649407,-0.059714283937893679
0.226461253888054298,-0.059065781244068624,-0.060676666349485466
0.228302402293648260,-0.059826040420920788,-0.061648412931149248
0.230143550699242194,-0.060587218673687333,-0.062629532974898941
0.231984699104836101,-0.061348681170286565,-0.063620034903792824
0.233825847510430063,-0.062110950942275554,-0.064619926277271020
0.235666995916023997,-0.062873857352672147,-0.065629213796497027
0.237508144321617931,-0.063637091633844595,-0.066647903309703729
0.239349292727211893,-0.064400105261494964,-0.067675999817542742
0.241190441132805827,-0.065163997991429884,-0.068713507478437616
0.243031589538399734,-0.065927584456169724,-0.069760429613940536
0.244872737943993696,-0.066691086865022328,-0.070816768714091996
0.246713886349587630,-0.067454369639531123,-0.071882526442783520
0.248555034755181564,-0.068218074971924808,-0.072957703643123234
0.250396183160775498,-0.068981015984406535,-0.074042300342803957
0.252237331566369460,-0.069743576778774435,-0.075136315759473452
0.254078479971963367,-0.070505752735688737,-0.076239748306106997
0.255919628377557329,-0.071267289004954104,-0.077352595596382120
0.257760776783151235,-0.072028477348612077,-0.078474854450054130
0.259601925188745197,-0.072788616983648302,-0.079606520898334365
0.261443073594339104,-0.073548031960499319,-0.080747590189268831
0.263284221999933066,-0.074306602034145380,-0.081898056793118262
0.265125370405526972,-0.075064269192401750,-0.083057914407739103
0.266966518811120934,-0.075820015705247309,-0.084227155963965086
0.268807667216714896,-0.076575841592567723,-0.085405773630989182
0.270648815622308803,-0.077330002332739747,-0.086593758821746039
0.272489964027902765,-0.078081824051235718,-0.087791102198294446
0.274331112433496671,-0.078833004012722002,-0.088997793677199288
0.276172260839090633,-0.079583199919928516,-0.090213822434913951
0.278013409244684540,-0.080331350891508460,-0.091439176913161224
0.279854557650278502,-0.081077461356016720,-0.092673844824314358
0.281695706055872463,-0.081822060844960409,-0.093917813156776442
0.283536854461466370,-0.082564929919534194,-0.095171068180359350
0.285378002867060332,-0.083305065850125176,-0.096433595451660678
0.287219151272654238,-0.084043720351210965,-0.097705379819439719
0.289060299678248200,-0.084780659926892696,-0.098986405429991486
0.290901448083842162,-0.085514569891933304,-0.100276655732518594
0.292742596489436069,-0.086246606665016254,-0.101576113484501740
0.294583744895030031,-0.086976611248278740,-0.102884760757066901
0.296424893300623937,-0.087703955053502369,-0.104202578940350926
0.298266041706217899,-0.088427946060189166,-0.105529548748864138
0.300107190111811861,-0.089150265891029923,-0.106865650226849698
0.301948338517405712,-0.089869158394274867,-0.108210862753640585
0.303789486922999674,-0.090586158549292209,-0.109565165049012841
0.305630635328593636,-0.091299160477568864,-0.110928535178535653
0.307471783734187543,-0.092009736612439302,-0.112300950558917631
0.309312932139781505,-0.092717743842406317,-0.113682387963349424
0.311154080545375467,-0.093421727836476981,-0.115072823526842297
0.312995228950969373,-0.094122996360349168,-0.116472232751562571
0.314836377356563335,-0.094821384148044099,-0.117880590512161654
0.316677525762157297,-0.095515850271864655,-0.119297871061101859
0.318518674167751148,-0.096206719130909668,-0.120724048033976836
0.320359822573345110,-0.096894024947291393,-0.122159094454827755
0.322200970978939072,-0.097578670299878559,-0.123602982741454481
0.324042119384532978,-0.098258637357436909,-0.125055684710720483
0.325883267790126940,-0.098935091295418456,-0.126517171583853977
0.327724416195720902,-0.099607901136763030,-0.127987413991742183
0.329565564601314809,-0.100276802732483281,-0.129466381980219786
0.331406713006908771,-0.100941504958735162,-0.130954045015352710
0.333247861412502677,-0.101601991246228207,-0.132450371988714427
0.335089009818096639,-0.102259287067887408,-0.133955331222656626
0.336930158223690601,-0.102910975773280663,-0.135468890475573450
0.338771306629284452,-0.103559358714408425,-0.136991016947158567
0.340612455034878414,-0.104202780026086420,-0.138521677283656691
0.342453603440472376,-0.104842261287385025,-0.140060837583106279
0.344294751846066283,-0.105477258769878596,-0.141608463400576978
0.346135900251660245,-0.106106879804347784,-0.143164519753398556
0.347977048657254207,-0.106732840189800560,-0.144728971126383027
0.349818197062848113,-0.107353840315289675,-0.146301781477038317
0.351659345468442075,-0.107969947622544749,-0.147882914240775792
0.353500493874036037,-0.108581173353504520,-0.149472332336107683
0.355341642279629888,-0.109187240431350363,-0.151069998169838238
0.357182790685223850,-0.109787956160364727,-0.152675873642245802
0.359023939090817812,-0.110384053059672610,-0.154289920152256205
0.360865087496411718,-0.110974934091534791,-0.155912098602608434
0.362706235902005680,-0.111560608995854224,-0.157542369405010846
0.364547384307599642,-0.112140959591309472,-0.159180692485288683
0.366388532713193549,-0.112715975233414770,-0.160827027288522800
0.368229681118787511,-0.113285572865011494,-0.162481332784178756
0.370070829524381473,-0.113849557649617253,-0.164143567471227048
0.371911977929975379,-0.114408081443175630,-0.165813689383253610
0.373753126335569286,-0.114960885667764690,-0.167491656093560370
0.375594274741163248,-0.115508117312511233,-0.169177424720256570
0.377435423146757154,-0.116049481823362430,-0.170870951931339943
0.379276571552351116,-0.116584769933505028,-0.172572193949767499
0.381117719957945078,-0.117114732144683195,-0.174281106558516141
0.382958868363538985,-0.117638370012759327,-0.175997645105633815
0.384800016769132947,-0.118155810083055257,-0.177721764509278624
0.386641165174726908,-0.118667776955007159,-0.179453419262748409
0.388482313580320815,-0.119173044190092031,-0.181192563439499188
0.390323461985914777,-0.119672360685513346,-0.182939150698152225
0.392164610391508739,-0.120165558995118729,-0.184693134287491012
0.394005758797102590,-0.120652317555791755,-0.186454467051445638
0.395846907202696552,-0.121132479424978054,-0.188223101434067508
0.397688055608290514,-0.121606413572418914,-0.189998989484490705
0.399529204013884420,-0.122073788078504011,-0.191782082861883002
0.401370352419478382,-0.122534467350240733,-0.193572332840385108
0.403211500825072344,-0.122988495372464188,-0.195369690314036865
0.405052649230666251,-0.123435972613741354,-0.197174105801692701
0.406893797636260213,-0.123876801522594518,-0.198985529451924353
0.408734946041854175,-0.124310925655537682,-0.200803911047911121
0.410576094447448026,-0.124737588054049650,-0.202629200012317712
0.412417242853041988,-0.125157972540594742,-0.204461345412160683
0.414258391258635950,-0.125570218181930676,-0.206300295963659647
0.416099539664229856,-0.125976176332968370,-0.208146000037078893
0.417940688069823818,-0.126376570735486193,-0.209998405661553561
0.419781836475417780,-0.126767710685459972,-0.211857460529903452
0.421622984881011686,-0.127152631677067168,-0.213723112003434412
0.423464133286605648,-0.127529901703165194,-0.215595307116725587
0.425305281692199555,-0.127900056362717979,-0.217473992582403630
0.427146430097793517,-0.128263413009772120,-0.219359114795903254
0.428987578503387423,-0.128618675746801109,-0.221250619840213686
0.430828726908981330,-0.128966358365352085,-0.223148453490612575
0.432669875314575292,-0.129306616364353449,-0.225052561219385022
0.434511023720169254,-0.129639905916129811,-0.226962888200527846
0.436352172125763160,-0.129965241256471492,-0.228879379314442216
0.438193320531357122,-0.130282567537412158,-0.230801979152609721
0.440034468936951084,-0.130592768815192078,-0.232730632022254635
0.441875617342544991,-0.130895084138842932,-0.234665281950992483
0.443716765748138953,-0.131189299337565818,-0.236605872691463742
0.445557914153732915,-0.131476405720094419,-0.238552347725951824
0.447399062559326766,-0.131754604802588104,-0.240504650270988080
0.449240210964920728,-0.132025489599956997,-0.242462723281940434
0.451081359370514690,-0.132288192461463311,-0.244426509457587732
0.452922507776108596,-0.132542948111707026,-0.246395951244678529
0.454763656181702558,-0.132789819762261840,-0.248370990842475742
0.456604804587296520,-0.133028259216358580,-0.250351570207284269
0.458445952992890426,-0.133258782431903089,-0.252337631056964717
0.460287101398484388,-0.133481238388438145,-0.254329114875431084
0.462128249804078350,-0.133694980284903037,-0.256325962917132555
0.463969398209672201,-0.133900853342879600,-0.258328116211519965
0.465810546615266163,-0.134098043054307364,-0.260335515567496734
0.467651695020860125,-0.134287457957937117,-0.262348101577853210
0.469492843426454032,-0.134468026546996161,-0.264365814623684636
0.471333991832047994,-0.134639802635006828,-0.266388594878795737
0.473175140237641956,-0.134803909042097242,-0.268416382314084712
0.475016288643235862,-0.134958929799589178,-0.270449116701915515
0.476857437048829824,-0.135105430082909511,-0.272486737620470210
0.478698585454423786,-0.135243722383761478,-0.274529184458087216
0.480539733860017693,-0.135373081036809034,-0.276576396417581527
0.482380882265611655,-0.135493510566891406,-0.278628312520549370
0.484222030671205561,-0.135605517668643510,-0.280684871611655506
0.486063179076799468,-0.135708738933896511,-0.282746012362904364
0.487904327482393430,-0.135803534079356830,-0.284811673277892696
0.489745475887987392,-0.135888960691916000,-0.286881792696048021
0.491586624293581298,-0.135965602728193635,-0.288956308796847083
0.493427772699175260,-0.136033530091635740,-0.291035159604020099
0.495268921104769222,-0.136092463939687935,-0.293118282989734358
0.497110069510363128,-0.136142564287083045,-0.295205616678764160
0.498951217915957090,-0.136183972951506110,-0.297297098252640724
0.500792366321550997,-0.136215501318910442,-0.299392665153786097
0.502633514727144903,-0.136239069515820932,-0.301492254689628647
0.504474663132738921,-0.136252904949716119,-0.303595804036702221
0.506315811538332827,-0.136257381292935659,-0.305703250244725722
0.508156959943926734,-0.136253714804891790,-0.307814530240666906
0.509998108349520751,-0.136239996341194852,-0.309929580832787599
0.511839256755114658,-0.136216846498397548,-0.312048338714670082
0.513680405160708564,-0.136185650946132553,-0.314170740469227883
0.515521553566302471,-0.136144038544415702,-0.316296722572695588
0.517362701971896488,-0.136093743770403702,-0.318426221398603271
0.519203850377490395,-0.136034548659358878,-0.320559173221730997
0.521044998783084301,-0.135965163254967436,-0.322695514222045954
0.522886147188678208,-0.135887084496905647,-0.324835180488621478
0.524727295594272225,-0.135799419341843697,-0.326978108023536440
0.526568443999866131,-0.135701654617476297,-0.329124232745757861
0.528409592405460038,-0.135595955268683344,-0.331273490495004375
0.530250740811053944,-0.135479452727543387,-0.333425817035591099
0.532091889216647962,-0.135354009148761056,-0.335581148060255852
0.533933037622241868,-0.135219584241300150,-0.337739419193966994
0.535774186027835775,-0.135074634021489087,-0.339900565997712401
0.537615334433429792,-0.134920862546736436,-0.342064523972269940
0.539456482839023699,-0.134757742459430174,-0.344231228561958869
0.541297631244617605,-0.134584282807031441,-0.346400615158372338
0.543138779650211623,-0.134401299435210730,-0.348572619104091874
0.544979928055805529,-0.134209191746863993,-0.350747175696380975
0.546821076461399436,-0.134006783727670303,-0.352924220190861337
0.548662224866993342,-0.133796035791644452,-0.355103687805170543
0.550503373272587249,-0.133573789736789572,-0.357285513722598314
0.552344521678181266,-0.133342973584078733,-0.359469633095705621
0.554185670083775173,-0.133103061724134997,-0.361655981049923581
0.556026818489369079,-0.132851963992479227,-0.363844492687134091
0.557867966894963097,-0.132591847235373927,-0.366035103089230041
0.559709115300557003,-0.132322567393241664,-0.368227747321656584
0.561550263706150909,-0.132042307484494997,-0.370422360436933551
0.563391412111744927,-0.131752773263603268,-0.372618877478157584
