# omega (a.u.), Re alpha(w), Im alpha(w)
0.000000000000000000e+00,0.000000000000000000e+00,0.000000000000000000e+00
2.945837448950299961e-02,1.060087106054439241e-03,-3.274782219407287170e-02
5.891674897900599922e-02,4.233201718045621897e-03,-6.535660626517418581e-02
8.837512346850900924e-02,9.498007472515640481e-03,-9.768907987664018910e-02
1.178334979580119984e-01,1.681928699678392897e-02,-1.296114570977758840e-01
1.472918724475150154e-01,2.614844770020016348e-02,-1.609950706227024908e-01
1.767502469370180185e-01,3.742421212515903428e-02,-1.917178760951264160e-01
2.062086214265209938e-01,5.057347592098622446e-02,-2.216657943580926382e-01
2.356669959160239969e-01,6.551231278561431282e-02,-2.507338640025342236e-01
2.651253704055269722e-01,8.214710275854739119e-02,-2.788271839928537221e-01
2.945837448950300308e-01,1.003757581263196308e-01,-3.058616339778275628e-01
3.240421193845329784e-01,1.200890199593992735e-01,-3.317643677285094239e-01
3.535004938740360370e-01,1.411717979365267328e-01,-3.564740825914076150e-01
3.829588683635389845e-01,1.635045265891965083e-01,-3.799410745720300797e-01
4.124172428530419876e-01,1.869645123416920907e-01,-4.021270944128227387e-01
4.418756173425449907e-01,2.114272476294704051e-01,-4.230050246269039249e-01
4.713339918320479938e-01,2.367676708293692811e-01,-4.425584008072717679e-01
5.007923663215509968e-01,2.628613535956739189e-01,-4.607808026434129789e-01
5.302507408110539444e-01,2.895856003288778679e-01,-4.776751410063650449e-01
5.597091153005570030e-01,3.168204477744365755e-01,-4.932528673274056974e-01
5.891674897900600616e-01,3.444495560315111171e-01,-5.075331304517772812e-01
6.186258642795630092e-01,3.723609854353434612e-01,-5.205419043769861087e-01
6.480842387690659567e-01,4.004478567676697520e-01,-5.323111079727306238e-01
6.775426132585689043e-01,4.286088949732499986e-01,-5.428777351089443259e-01
7.070009877480720739e-01,4.567488589630602780e-01,-5.522830107575299463e-01
7.364593622375750215e-01,4.847788621316329039e-01,-5.605715857283131154e-01
7.659177367270779691e-01,5.126165898912963259e-01,-5.677907798712091836e-01
7.953761112165810276e-01,5.401864218296142939e-01,-5.739898809183622275e-01
8.248344857060839752e-01,5.674194670416697894e-01,-5.792195037195355667e-01
8.542928601955870338e-01,5.942535218001118169e-01,-5.835310124845868307e-01
8.837512346850899814e-01,6.206329590351595815e-01,-5.869760068106191220e-01
9.132096091745930400e-01,6.465085591412574884e-01,-5.896058707430700263e-01
9.426679836640959875e-01,6.718372914467752866e-01,-5.914713828905302506e-01
9.721263581535989351e-01,6.965820553187829223e-01,-5.926223846633301706e-01
1.001584732643101994e+00,7.207113893660700432e-01,-5.931075030098972301e-01
1.031043107132604941e+00,7.441991565876258097e-01,-5.929739235525453012e-01
1.060501481622107889e+00,7.670242126246773484e-01,-5.922672097440001560e-01
1.089959856111611058e+00,7.891700635422522758e-01,-5.910311635459437607e-01
1.119418230601114006e+00,8.106245188169436400e-01,-5.893077231410152050e-01
1.148876605090616954e+00,8.313793444626800255e-01,-5.871368933021564596e-01
1.178334979580120123e+00,8.514299205032309636e-01,-5.845567042330226393e-01
1.207793354069622849e+00,8.707749063123417788e-01,-5.816031949386293309e-01
1.237251728559126018e+00,8.894159166996873367e-01,-5.783104174679336573e-01
1.266710103048629188e+00,9.073572110299615856e-01,-5.747104586743042587e-01
1.296168477538131913e+00,9.246053971273832106e-01,-5.708334764532971839e-01
1.325626852027635083e+00,9.411691512403976834e-01,-5.667077477300359600e-01
1.355085226517137809e+00,9.570589549213236458e-01,-5.623597257732538823e-01
1.384543601006640978e+00,9.722868493114799060e-01,-5.578141047041895728e-01
1.414001975496144148e+00,9.868662070113124463e-01,-5.530938893421994962e-01
1.443460349985646873e+00,1.000811521453776720e+00,-5.482204687827042511e-01
1.472918724475150043e+00,1.014138213483714024e+00,-5.432136923355749270e-01
1.502377098964652991e+00,1.026862454671963576e+00,-5.380919466628422132e-01
1.531835473454155938e+00,1.039001006756112400e+00,-5.328722331438618953e-01
1.561293847943659108e+00,1.050571076495737888e+00,-5.275702446644845445e-01
1.590752222433162055e+00,1.061590185154587473e+00,-5.222004411754430642e-01
1.620210596922665003e+00,1.072076051771348570e+00,-5.167761234953162086e-01
1.649668971412167950e+00,1.082046489350825258e+00,-5.113095049465129494e-01
1.679127345901671120e+00,1.091519313095044907e+00,-5.058117805102122500e-01
1.708585720391174068e+00,1.100512259795980219e+00,-5.002931932695854345e-01
1.738044094880677015e+00,1.109042917525478567e+00,-4.947630979813855689e-01
1.767502469370179963e+00,1.117128664781197322e+00,-4.892300216755131048e-01
1.796960843859682910e+00,1.124786618277731520e+00,-4.837017212317648585e-01
1.826419218349186080e+00,1.132033588607880281e+00,-4.781852379238864525e-01
1.855877592838688805e+00,1.138886043038555673e+00,-4.726869489543822911e-01
1.885335967328191975e+00,1.145360074747886037e+00,-4.672126160303186615e-01
1.914794341817695145e+00,1.151471377853506173e+00,-4.617674310515085256e-01
1.944252716307197870e+00,1.157235227625953655e+00,-4.563560589988024940e-01
1.973711090796701040e+00,1.162666465324778908e+00,-4.509826781224595682e-01
2.003169465286203987e+00,1.167779487137864391e+00,-4.456510175393936235e-01
2.032627839775706935e+00,1.172588236746028967e+00,-4.403643923540018212e-01
2.062086214265209883e+00,1.177106201075010627e+00,-4.351257364208444556e-01
2.091544588754712830e+00,1.181346408835048711e+00,-4.299376328690049931e-01
2.121002963244215778e+00,1.185321431484407162e+00,-4.248023425079445192e-01
2.150461337733719169e+00,1.189043386287177206e+00,-4.197218302333541873e-01
2.179919712223222117e+00,1.192523941167499490e+00,-4.146977895491840149e-01
2.209378086712725064e+00,1.195774321091988668e+00,-4.097316653189116420e-01
2.238836461202228012e+00,1.198805315739609245e+00,-4.048246748553945284e-01
2.268294835691730960e+00,1.201627288243609648e+00,-3.999778274545053858e-01
2.297753210181233907e+00,1.204250184813469460e+00,-3.951919424732801001e-01
2.327211584670737299e+00,1.206683545066194352e+00,-3.904676660486630091e-01
2.356669959160240246e+00,1.208936512915826489e+00,-3.858054865481737039e-01
2.386128333649743194e+00,1.211017847887851273e+00,-3.812057488390298565e-01
2.415586708139245697e+00,1.212935936741323051e+00,-3.766686674575078220e-01
2.445045082628749089e+00,1.214698805296174688e+00,-3.721943387556330141e-01
2.474503457118252037e+00,1.216314130376390246e+00,-3.677827520977239861e-01
2.503961831607754984e+00,1.217789251791609795e+00,-3.634338001748835256e-01
2.533420206097258376e+00,1.219131184290431547e+00,-3.591472885012552130e-01
2.562878580586760879e+00,1.220346629428244345e+00,-3.549229441517733341e-01
2.592336955076263827e+00,1.221441987300987853e+00,-3.507604237972183903e-01
2.621795329565767219e+00,1.222423368103846109e+00,-3.466593210886689258e-01
2.651253704055270166e+00,1.223296603480671374e+00,-3.426191734399153255e-01
2.680712078544773114e+00,1.224067257635929273e+00,-3.386394682530595723e-01
2.710170453034275617e+00,1.224740638186269992e+00,-3.347196486293812501e-01
2.739628827523779009e+00,1.225321806733497443e+00,-3.308591186045839461e-01
2.769087202013281956e+00,1.225815589144824802e+00,-3.270572479447579894e-01
2.798545576502784904e+00,1.226226585529889279e+00,-3.233133765367842694e-01
2.828003950992288296e+00,1.226559179907136032e+00,-3.196268184044642191e-01
2.857462325481790799e+00,1.226817549554907849e+00,-3.159968653793767124e-01
2.886920699971293747e+00,1.227005674044916006e+00,-3.124227904533347089e-01
2.916379074460797138e+00,1.227127343957803651e+00,-3.089038508373269099e-01
2.945837448950300086e+00,1.227186169282236783e+00,-3.054392907499790533e-01
2.975295823439803033e+00,1.227185587500427832e+00,-3.020283439568488548e-01
3.004754197929305981e+00,1.227128871364238760e+00,-2.986702360802678813e-01
3.034212572418808929e+00,1.227019136367035079e+00,-2.953641866979552777e-01
3.063670946908311876e+00,1.226859347917332199e+00,-2.921094112472515381e-01
3.093129321397815268e+00,1.226652328220956933e+00,-2.889051227505328168e-01
3.122587695887318215e+00,1.226400762879006123e+00,-2.857505333761880539e-01
3.152046070376820719e+00,1.226107207209326422e+00,-2.826448558484322415e-01
3.181504444866324111e+00,1.225774092299555473e+00,-2.795873047182141913e-01
3.210962819355827058e+00,1.225403730800008972e+00,-2.765770975065345860e-01
3.240421193845330006e+00,1.224998322464849521e+00,-2.736134557306109660e-01
3.269879568334833397e+00,1.224559959450059576e+00,-2.706956058225252204e-01
3.299337942824335901e+00,1.224090631376766991e+00,-2.678227799492362560e-01
3.328796317313838848e+00,1.223592230168456529e+00,-2.649942167421522887e-01
3.358254691803342240e+00,1.223066554670511730e+00,-2.622091619438178811e-01
3.387713066292845188e+00,1.222515315060461960e+00,-2.594668689786798210e-01
3.417171440782348135e+00,1.221940137057141662e+00,-2.567665994543514851e-01
3.446629815271850639e+00,1.221342565936839542e+00,-2.541076235992913990e-01
3.476088189761354030e+00,1.220724070364317182e+00,-2.514892206423450793e-01
3.505546564250856978e+00,1.220086046046394923e+00,-2.489106791391735296e-01
3.535004938740359925e+00,1.219429819215586130e+00,-2.463712972501880538e-01
3.564463313229863317e+00,1.218756649951052706e+00,-2.438703829742539242e-01
3.593921687719365821e+00,1.218067735343922875e+00,-2.414072543420787975e-01
3.623380062208868768e+00,1.217364212513791344e+00,-2.389812395728965755e-01
3.652838436698372160e+00,1.216647161482979911e+00,-2.365916771977654431e-01
3.682296811187875107e+00,1.215917607914919651e+00,-2.342379161525357245e-01
3.711755185677377611e+00,1.215176525722768908e+00,-2.319193158432954760e-01
3.741213560166881003e+00,1.214424839554156810e+00,-2.296352461868788053e-01
3.770671934656383950e+00,1.213663427157717800e+00,-2.273850876288133760e-01
3.800130309145886898e+00,1.212893121636859473e+00,-2.251682311408853832e-01
3.829588683635390289e+00,1.212114713595967341e+00,-2.229840782003324751e-01
3.859047058124893237e+00,1.211328953184070967e+00,-2.208320407525043716e-01
3.888505432614395740e+00,1.210536552040745617e+00,-2.187115411586808555e-01
3.917963807103899132e+00,1.209738185148857781e+00,-2.166220121306025037e-01
3.947422181593402080e+00,1.208934492598529475e+00,-2.145628966531357984e-01
3.976880556082905027e+00,1.208126081266532648e+00,-2.125336478963784081e-01
4.006338930572407975e+00,1.207313526415125571e+00,-2.105337291184028736e-01
4.035797305061911366e+00,1.206497373214161062e+00,-2.085626135597334063e-01
4.065255679551413870e+00,1.205678138190137805e+00,-2.066197843305615511e-01
4.094714054040917262e+00,1.204856310605679992e+00,-2.047047342916167023e-01
4.124172428530419765e+00,1.204032353772786390e+00,-2.028169659295354366e-01
4.153630803019923157e+00,1.203206706303030726e+00,-2.009559912274930527e-01
4.183089177509425660e+00,1.202379783297744087e+00,-1.991213315318021426e-01
4.212547551998929052e+00,1.201551977481065903e+00,-1.973125174151144634e-01
4.242005926488431555e+00,1.200723660278633975e+00,-1.955290885368131948e-01
4.271464300977934947e+00,1.199895182844518571e+00,-1.937705935011223290e-01
4.300922675467438339e+00,1.199066877038917012e+00,-1.920365897134199140e-01
4.330381049956940842e+00,1.198239056358986865e+00,-1.903266432351924942e-01
4.359839424446444234e+00,1.197412016825073700e+00,-1.886403286380287647e-01
4.389297798935946737e+00,1.196586037824513005e+00,-1.869772288570158980e-01
4.418756173425450129e+00,1.195761382915040194e+00,-1.853369350438629493e-01
4.448214547914952632e+00,1.194938300589777125e+00,-1.837190464200475493e-01
4.477672922404456024e+00,1.194117025005654087e+00,-1.821231701302526984e-01
4.507131296893959416e+00,1.193297776677031852e+00,-1.805489210963327207e-01
4.536589671383461919e+00,1.192480763136219091e+00,-1.789959218720235667e-01
4.566048045872965311e+00,1.191666179562473005e+00,-1.774638024985895346e-01
4.595506420362467814e+00,1.190854209381025708e+00,-1.759522003615805741e-01
4.624964794851971206e+00,1.190045024833573217e+00,-1.744607600488497501e-01
4.654423169341474598e+00,1.189238787521608609e+00,-1.729891332099703083e-01
4.683881543830977101e+00,1.188435648923917842e+00,-1.715369784171693612e-01
4.713339918320480493e+00,1.187635750889478814e+00,-1.701039610278846648e-01
4.742798292809982996e+00,1.186839226106954914e+00,-1.686897530490364949e-01
4.772256667299486388e+00,1.186046198551906405e+00,-1.672940330030934786e-01
4.801715041788989780e+00,1.185256783912800760e+00,-1.659164857960021000e-01
4.831173416278491395e+00,1.184471089996836257e+00,-1.645568025870362827e-01
4.860631790767994787e+00,1.183689217116552728e+00,-1.632146806606185607e-01
4.890090165257498178e+00,1.182911258458148041e+00,-1.618898233001514197e-01
4.919548539747000682e+00,1.182137300432386962e+00,-1.605819396638923646e-01
4.949006914236504073e+00,1.181367423008927942e+00,-1.592907446628975821e-01
4.978465288726007465e+00,1.180601700034868973e+00,-1.580159588410561256e-01
5.007923663215509968e+00,1.179840199538261691e+00,-1.567573082572237819e-01
5.037382037705013360e+00,1.179082984017318037e+00,-1.555145243694702750e-01
5.066840412194516752e+00,1.178330110715989587e+00,-1.542873439214380027e-01
5.096298786684018367e+00,1.177581631886565061e+00,-1.530755088308152767e-01
5.125757161173521759e+00,1.176837595039915252e+00,-1.518787660799183481e-01
5.155215535663025150e+00,1.176098043183961384e+00,-1.506968676083726977e-01
5.184673910152527654e+00,1.175363015050934656e+00,-1.495295702078847655e-01
5.214132284642031046e+00,1.174632545313951448e+00,-1.483766354190873271e-01
5.243590659131534437e+00,1.173906664793420429e+00,-1.472378294304442226e-01
5.273049033621036941e+00,1.173185400653754096e+00,-1.461129229791943152e-01
5.302507408110540332e+00,1.172468776590843698e+00,-1.450016912543133363e-01
5.331965782600042836e+00,1.171756813010744303e+00,-1.439039138014734376e-01
5.361424157089546227e+00,1.171049527199967022e+00,-1.428193744299727508e-01
5.390882531579049619e+00,1.170346933487790064e+00,-1.417478611216134443e-01
5.420340906068551234e+00,1.169649043400954103e+00,-1.406891659414981344e-01
5.449799280558054626e+00,1.168955865811103667e+00,-1.396430849507193095e-01
5.479257655047558018e+00,1.168267407075314512e+00,-1.386094181209131526e-01
5.508716029537060521e+00,1.167583671170028037e+00,-1.375879692506473684e-01
5.538174404026563913e+00,1.166904659818708501e+00,-1.365785458836141497e-01
5.567632778516067305e+00,1.166230372613506594e+00,-1.355809592285988074e-01
5.597091153005569808e+00,1.165560807131219567e+00,-1.345950240811917831e-01
5.626549527495073200e+00,1.164895959043803497e+00,-1.336205587472145406e-01
5.656007901984576591e+00,1.164235822223700811e+00,-1.326573849678282235e-01
5.685466276474078207e+00,1.163580388844217772e+00,-1.317053278462934351e-01
5.714924650963581598e+00,1.162929649475185512e+00,-1.307642157763496127e-01
5.744383025453084990e+00,1.162283593174123109e+00,-1.298338803721851842e-01
5.773841399942587493e+00,1.161642207573106100e+00,-1.289141563999634810e-01
5.803299774432090885e+00,1.161005478961550486e+00,-1.280048817108777881e-01
5.832758148921594277e+00,1.160373392365087852e+00,-1.271058971757017264e-01
5.862216523411096780e+00,1.159745931620721704e+00,-1.262170466208054342e-01
5.891674897900600172e+00,1.159123079448435067e+00,-1.253381767656076284e-01
5.921133272390103564e+00,1.158504817519407037e+00,-1.244691371614336239e-01
5.950591646879606067e+00,1.157891126521004788e+00,-1.236097801317484063e-01
5.980050021369108570e+00,1.157281986218688052e+00,-1.227599607137371540e-01
6.009508395858611962e+00,1.156677375514977069e+00,-1.219195366012031795e-01
6.038966770348114466e+00,1.156077272505615428e+00,-1.210883680887549912e-01
6.068425144837617857e+00,1.155481654533054403e+00,-1.202663180172544727e-01
6.097883519327121249e+00,1.154890498237385987e+00,-1.194532517204979910e-01
6.127341893816623752e+00,1.154303779604836988e+00,-1.186490369731041106e-01
6.156800268306127144e+00,1.153721474013941428e+00,-1.178535439395797801e-01
6.186258642795630536e+00,1.153143556279490944e+00,-1.170666451245393480e-01
6.215717017285133039e+00,1.152570000694369323e+00,-1.162882153240505506e-01
6.245175391774636431e+00,1.152000781069367319e+00,-1.155181315780813983e-01
6.274633766264139823e+00,1.151435870771066572e+00,-1.147562731240232142e-01
6.304092140753641438e+00,1.150875242757887884e+00,-1.140025213512657898e-01
6.333550515243144829e+00,1.150318869614376682e+00,-1.132567597567988443e-01
6.363008889732648221e+00,1.149766723583818040e+00,-1.125188739018190137e-01
6.392467264222150725e+00,1.149218776599250313e+00,-1.117887513693159168e-01
6.421925638711654116e+00,1.148675000312947558e+00,-1.110662817226170107e-01
6.451384013201157508e+00,1.148135366124450218e+00,-1.103513564648682110e-01
6.480842387690660011e+00,1.147599845207202707e+00,-1.096438689994280041e-01
6.510300762180163403e+00,1.147068408533858497e+00,-1.089437145911544835e-01
6.539759136669666795e+00,1.146541026900327331e+00,-1.082507903285640921e-01
6.569217511159168410e+00,1.146017670948600742e+00,-1.075649950868417387e-01
6.598675885648671802e+00,1.145498311188435148e+00,-1.068862294916820693e-01
6.628134260138175193e+00,1.144982918017921181e+00,-1.062143958839424640e-01
6.657592634627677697e+00,1.144471461743009844e+00,-1.055493982850893853e-01
6.687051009117181088e+00,1.143963912596028587e+00,-1.048911423634177470e-01
6.716509383606684480e+00,1.143460240753241708e+00,-1.042395354010268033e-01
6.745967758096186984e+00,1.142960416351495923e+00,-1.035944862615334333e-01
6.775426132585690375e+00,1.142464409503988643e+00,-1.029559053585063361e-01
6.804884507075192879e+00,1.141972190315209801e+00,-1.023237046246033843e-01
6.834342881564696270e+00,1.141483728895082317e+00,-1.016977974813954161e-01
6.863801256054198774e+00,1.140998995372343172e+00,-1.010780988098611832e-01
6.893259630543701277e+00,1.140517959907205947e+00,-1.004645249215366937e-01
6.922718005033204669e+00,1.140040592703323030e+00,-9.985699353030316749e-02
6.952176379522708061e+00,1.139566864019096570e+00,-9.925542372479970177e-02
6.981634754012210564e+00,1.139096744178352827e+00,-9.865973594144483716e-02
7.011093128501713956e+00,1.138630203580419220e+00,-9.806985193805244083e-02
7.040551502991217347e+00,1.138167212709627174e+00,-9.748569476802924905e-02
7.070009877480719851e+00,1.137707742144265843e+00,-9.690718875513812391e-02
7.099468251970223243e+00,1.137251762565019586e+00,-9.633425946881567226e-02
7.128926626459726634e+00,1.136799244762898287e+00,-9.576683370003009899e-02
7.158385000949228250e+00,1.136350159646704050e+00,-9.520483943766627766e-02
7.187843375438731641e+00,1.135904478250031824e+00,-9.464820584542631143e-02
7.217301749928235033e+00,1.135462171737849024e+00,-9.409686323923301121e-02
7.246760124417737536e+00,1.135023211412658828e+00,-9.355074306512435600e-02
7.276218498907240928e+00,1.134587568720266670e+00,-9.300977787762738924e-02
7.305676873396744320e+00,1.134155215255178817e+00,-9.247390131860068474e-02
7.335135247886246823e+00,1.133726122765638333e+00,-9.194304809653335020e-02
7.364593622375750215e+00,1.133300263158322663e+00,-9.141715396629095103e-02
7.394051996865253606e+00,1.132877608502715683e+00,-9.089615570929712729e-02
7.423510371354755222e+00,1.132458131035171789e+00,-9.037999111414103670e-02
7.452968745844258613e+00,1.132041803162682880e+00,-8.986859895759989614e-02
7.482427120333762005e+00,1.131628597466366459e+00,-8.936191898606853090e-02
7.511885494823264509e+00,1.131218486704682835e+00,-8.885989189738423277e-02
7.541343869312767900e+00,1.130811443816403417e+00,-8.836245932303944672e-02
7.570802243802271292e+00,1.130407441923326761e+00,-8.786956381077237754e-02
7.600260618291773795e+00,1.130006454332775689e+00,-8.738114880752691216e-02
7.629718992781277187e+00,1.129608454539861695e+00,-8.689715864277311463e-02
7.659177367270780579e+00,1.129213416229548406e+00,-8.641753851218027249e-02
7.688635741760283082e+00,1.128821313278512983e+00,-8.594223446163393176e-02
